received_at,esp32_millis,value
2026-07-01T01:17:54.539250,8407,69
2026-07-01T01:17:54.539250,8417,116
2026-07-01T01:17:54.539250,8427,73
2026-07-01T01:17:54.539250,8438,114
2026-07-01T01:17:54.539250,8448,75
2026-07-01T01:17:54.717106,10482,57
2026-07-01T01:17:54.717106,10493,128
2026-07-01T01:17:54.717106,10503,63
2026-07-01T01:17:54.717106,10513,127
2026-07-01T01:17:54.717106,10524,65
2026-07-01T01:17:54.894598,10618,81
2026-07-01T01:17:54.894598,10629,90
2026-07-01T01:17:54.894598,10640,72
2026-07-01T01:17:54.894598,10650,96
2026-07-01T01:17:54.894598,10661,57
2026-07-01T01:17:55.007633,10811,112
2026-07-01T01:17:55.007633,10822,57
2026-07-01T01:17:55.007633,10832,127
2026-07-01T01:17:55.007633,10842,62
2026-07-01T01:17:55.007633,10853,128
2026-07-01T01:17:55.115510,10908,87
2026-07-01T01:17:55.115510,10919,74
2026-07-01T01:17:55.115510,10930,96
2026-07-01T01:17:55.115510,10940,65
2026-07-01T01:17:55.115510,10951,108
2026-07-01T01:17:55.764214,11009,89
2026-07-01T01:17:55.764214,11021,58
2026-07-01T01:17:55.764214,11031,116
2026-07-01T01:17:55.764214,11041,56
2026-07-01T01:17:55.764214,11051,123
2026-07-01T01:17:55.907573,11679,72
2026-07-01T01:17:55.907573,11690,97
2026-07-01T01:17:55.907573,11700,61
2026-07-01T01:17:55.907573,11710,110
2026-07-01T01:17:55.907573,11721,55
2026-07-01T01:17:56.053208,11802,58
2026-07-01T01:17:56.053208,11812,126
2026-07-01T01:17:56.053208,11822,62
2026-07-01T01:17:56.053208,11832,125
2026-07-01T01:17:56.053208,11843,65
2026-07-01T01:17:56.138577,11944,69
2026-07-01T01:17:56.138577,11955,116
2026-07-01T01:17:56.138577,11965,74
2026-07-01T01:17:56.138577,11976,111
2026-07-01T01:17:56.138577,11986,77
2026-07-01T01:17:56.540018,12034,123
2026-07-01T01:17:56.540018,12044,68
2026-07-01T01:17:56.540018,12055,117
2026-07-01T01:17:56.540018,12065,72
2026-07-01T01:17:56.540018,12075,114
2026-07-01T01:17:57.261849,12522,64
2026-07-01T01:17:57.261849,12533,123
2026-07-01T01:17:57.261849,12543,67
2026-07-01T01:17:57.261849,12553,123
2026-07-01T01:17:57.261849,12563,68
2026-07-01T01:17:59.522667,13739,52
2026-07-01T01:17:59.522667,13750,125
2026-07-01T01:17:59.522667,13760,60
2026-07-01T01:17:59.522667,13770,127
2026-07-01T01:17:59.522667,13780,63
2026-07-01T01:17:59.885680,15477,61
2026-07-01T01:17:59.885680,15487,114
2026-07-01T01:17:59.885680,15497,53
2026-07-01T01:17:59.885680,15507,121
2026-07-01T01:17:59.885680,15518,56
2026-07-01T01:18:00.246061,15868,126
2026-07-01T01:18:00.246061,15879,63
2026-07-01T01:18:00.246061,15889,124
2026-07-01T01:18:00.246061,15899,65
2026-07-01T01:18:00.246061,15909,124
2026-07-01T01:18:00.398547,16143,80
2026-07-01T01:18:00.398547,16153,85
2026-07-01T01:18:00.398547,16164,88
2026-07-01T01:18:00.398547,16175,74
2026-07-01T01:18:00.398547,16185,94
2026-07-01T01:18:00.591180,16348,127
2026-07-01T01:18:00.591180,16359,65
2026-07-01T01:18:00.591180,16369,124
2026-07-01T01:18:00.591180,16379,68
2026-07-01T01:18:00.591180,16390,123
2026-07-01T01:18:00.671084,16485,93
2026-07-01T01:18:00.671084,16496,52
2026-07-01T01:18:00.671084,16506,117
2026-07-01T01:18:00.671084,16516,57
2026-07-01T01:18:00.671084,16527,124
2026-07-01T01:18:00.760973,16563,82
2026-07-01T01:18:00.760973,16573,82
2026-07-01T01:18:00.760973,16583,88
2026-07-01T01:18:00.760973,16594,75
2026-07-01T01:18:00.760973,16604,93
2026-07-01T01:18:00.933238,16698,64
2026-07-01T01:18:00.933238,16709,124
2026-07-01T01:18:00.933238,16719,67
2026-07-01T01:18:00.933238,16730,122
2026-07-01T01:18:00.933238,16740,69
2026-07-01T01:18:01.080127,16831,116
2026-07-01T01:18:01.080127,16841,76
2026-07-01T01:18:01.080127,16851,106
2026-07-01T01:18:01.080127,16862,80
2026-07-01T01:18:01.080127,16872,94
2026-07-01T01:18:01.273306,17060,73
2026-07-01T01:18:01.273306,17071,110
2026-07-01T01:18:01.273306,17081,79
2026-07-01T01:18:01.273306,17092,90
2026-07-01T01:18:01.273306,17102,85
2026-07-01T01:18:01.418371,17180,70
2026-07-01T01:18:01.418371,17190,114
2026-07-01T01:18:01.418371,17201,77
2026-07-01T01:18:01.418371,17211,103
2026-07-01T01:18:01.418371,17221,80
2026-07-01T01:18:01.536344,17321,78
2026-07-01T01:18:01.536344,17332,84
2026-07-01T01:18:01.536344,17343,88
2026-07-01T01:18:01.536344,17353,76
2026-07-01T01:18:01.536344,17363,92
2026-07-01T01:18:01.711028,17517,64
2026-07-01T01:18:01.711028,17527,124
2026-07-01T01:18:01.711028,17538,67
2026-07-01T01:18:01.711028,17548,123
2026-07-01T01:18:01.711028,17558,68
2026-07-01T01:18:01.792886,17604,97
2026-07-01T01:18:01.792886,17615,51
2026-07-01T01:18:01.792886,17625,120
2026-07-01T01:18:01.792886,17636,60
2026-07-01T01:18:01.792886,17646,126
2026-07-01T01:18:01.871303,17683,90
2026-07-01T01:18:01.871303,17693,70
2026-07-01T01:18:01.871303,17704,96
2026-07-01T01:18:01.871303,17715,51
2026-07-01T01:18:01.871303,17725,121
2026-07-01T01:18:01.953026,17764,106
2026-07-01T01:18:01.953026,17775,56
2026-07-01T01:18:01.953026,17786,124
2026-07-01T01:18:01.953026,17796,62
2026-07-01T01:18:01.953026,17806,126
2026-07-01T01:18:02.043081,17845,117
2026-07-01T01:18:02.043081,17856,58
2026-07-01T01:18:02.043081,17866,126
2026-07-01T01:18:02.043081,17877,64
2026-07-01T01:18:02.043081,17887,124
2026-07-01T01:18:02.160695,17943,90
2026-07-01T01:18:02.160695,17953,70
2026-07-01T01:18:02.160695,17964,96
2026-07-01T01:18:02.160695,17974,54
2026-07-01T01:18:02.160695,17984,116
2026-07-01T01:18:02.239399,18056,61
2026-07-01T01:18:02.239399,18067,124
2026-07-01T01:18:02.239399,18077,67
2026-07-01T01:18:02.239399,18087,123
2026-07-01T01:18:02.239399,18098,68
2026-07-01T01:18:02.542671,18131,93
2026-07-01T01:18:02.542671,18141,86
2026-07-01T01:18:02.542671,18152,76
2026-07-01T01:18:02.542671,18162,90
2026-07-01T01:18:02.542671,18172,72
2026-07-01T01:18:02.778464,18440,77
2026-07-01T01:18:02.778464,18450,96
2026-07-01T01:18:02.778464,18461,84
2026-07-01T01:18:02.778464,18471,81
2026-07-01T01:18:02.778464,18481,88
2026-07-01T01:18:03.258467,18671,77
2026-07-01T01:18:03.258467,18682,92
2026-07-01T01:18:03.258467,18693,65
2026-07-01T01:18:03.258467,18703,110
2026-07-01T01:18:03.258467,18713,54
2026-07-01T01:18:03.723698,19153,56
2026-07-01T01:18:03.723698,19163,116
2026-07-01T01:18:03.723698,19174,56
2026-07-01T01:18:03.723698,19184,125
2026-07-01T01:18:03.723698,19194,58
2026-07-01T01:18:04.510916,19686,123
2026-07-01T01:18:04.510916,19696,69
2026-07-01T01:18:04.510916,19707,116
2026-07-01T01:18:04.510916,19717,72
2026-07-01T01:18:04.510916,19727,114
2026-07-01T01:18:05.302557,20672,53
2026-07-01T01:18:05.302557,20682,124
2026-07-01T01:18:05.302557,20693,60
2026-07-01T01:18:05.302557,20703,124
2026-07-01T01:18:05.302557,20713,62
2026-07-01T01:18:05.662606,21311,58
2026-07-01T01:18:05.662606,21322,124
2026-07-01T01:18:05.662606,21332,63
2026-07-01T01:18:05.662606,21343,123
2026-07-01T01:18:05.662606,21353,65
2026-07-01T01:18:05.967270,21552,61
2026-07-01T01:18:05.967270,21562,123
2026-07-01T01:18:05.967270,21572,64
2026-07-01T01:18:05.967270,21583,122
2026-07-01T01:18:05.967270,21593,67
2026-07-01T01:18:06.311593,21878,90
2026-07-01T01:18:06.311593,21888,69
2026-07-01T01:18:06.311593,21899,112
2026-07-01T01:18:06.311593,21910,55
2026-07-01T01:18:06.311593,21920,122
2026-07-01T01:18:06.537067,22205,90
2026-07-01T01:18:06.537067,22216,85
2026-07-01T01:18:06.537067,22227,76
2026-07-01T01:18:06.537067,22237,89
2026-07-01T01:18:06.537067,22247,70
2026-07-01T01:18:07.506647,22427,70
2026-07-01T01:18:07.506647,22438,94
2026-07-01T01:18:07.506647,22448,55
2026-07-01T01:18:07.506647,22459,114
2026-07-01T01:18:07.506647,22469,55
2026-07-01T01:18:08.189039,23441,117
2026-07-01T01:18:08.189039,23452,74
2026-07-01T01:18:08.189039,23463,105
2026-07-01T01:18:08.189039,23473,78
2026-07-01T01:18:08.189039,23483,93
2026-07-01T01:18:08.492634,24242,89
2026-07-01T01:18:08.492634,24253,85
2026-07-01T01:18:08.492634,24264,76
2026-07-01T01:18:08.492634,24274,90
2026-07-01T01:18:08.492634,24284,74
2026-07-01T01:18:08.637450,24384,70
2026-07-01T01:18:08.637450,24395,96
2026-07-01T01:18:08.637450,24405,58
2026-07-01T01:18:08.637450,24416,114
2026-07-01T01:18:08.637450,24426,56
2026-07-01T01:18:08.723756,24537,126
2026-07-01T01:18:08.723756,24547,62
2026-07-01T01:18:08.723756,24558,124
2026-07-01T01:18:08.723756,24568,64
2026-07-01T01:18:08.723756,24578,123
2026-07-01T01:18:08.828770,24617,125
2026-07-01T01:18:08.828770,24628,64
2026-07-01T01:18:08.828770,24638,123
2026-07-01T01:18:08.828770,24648,68
2026-07-01T01:18:08.828770,24659,120
2026-07-01T01:18:09.027414,24755,120
2026-07-01T01:18:09.027414,24766,60
2026-07-01T01:18:09.027414,24776,126
2026-07-01T01:18:09.027414,24787,62
2026-07-01T01:18:09.027414,24797,124
2026-07-01T01:18:09.274279,24938,122
2026-07-01T01:18:09.274279,24949,69
2026-07-01T01:18:09.274279,24959,116
2026-07-01T01:18:09.274279,24969,72
2026-07-01T01:18:09.274279,24980,113
2026-07-01T01:18:09.424383,25169,70
2026-07-01T01:18:09.424383,25179,113
2026-07-01T01:18:09.424383,25190,76
2026-07-01T01:18:09.424383,25200,106
2026-07-01T01:18:09.424383,25210,79
2026-07-01T01:18:09.560107,25332,90
2026-07-01T01:18:09.560107,25343,72
2026-07-01T01:18:09.560107,25353,103
2026-07-01T01:18:09.560107,25364,51
2026-07-01T01:18:09.560107,25374,117
2026-07-01T01:18:09.682604,25473,100
2026-07-01T01:18:09.682604,25483,52
2026-07-01T01:18:09.682604,25494,116
2026-07-01T01:18:09.682604,25504,52
2026-07-01T01:18:09.682604,25514,124
2026-07-01T01:18:09.798729,25602,75
2026-07-01T01:18:09.798729,25613,97
2026-07-01T01:18:09.798729,25623,58
2026-07-01T01:18:09.798729,25633,112
2026-07-01T01:18:09.798729,25643,51
2026-07-01T01:18:10.015600,25806,65
2026-07-01T01:18:10.015600,25816,123
2026-07-01T01:18:10.015600,25826,68
2026-07-01T01:18:10.015600,25837,121
2026-07-01T01:18:10.015600,25847,70
2026-07-01T01:18:10.169574,25914,126
2026-07-01T01:18:10.169574,25925,61
2026-07-01T01:18:10.169574,25935,124
2026-07-01T01:18:10.169574,25945,65
2026-07-01T01:18:10.169574,25955,123
2026-07-01T01:18:10.306675,26061,74
2026-07-01T01:18:10.306675,26072,97
2026-07-01T01:18:10.306675,26082,61
2026-07-01T01:18:10.306675,26092,110
2026-07-01T01:18:10.306675,26103,51
2026-07-01T01:18:10.401625,26203,56
2026-07-01T01:18:10.401625,26213,126
2026-07-01T01:18:10.401625,26224,61
2026-07-01T01:18:10.401625,26234,124
2026-07-01T01:18:10.401625,26244,64
2026-07-01T01:18:10.876958,26372,117
2026-07-01T01:18:10.876958,26383,56
2026-07-01T01:18:10.876958,26393,125
2026-07-01T01:18:10.876958,26403,60
2026-07-01T01:18:10.876958,26413,124
2026-07-01T01:18:11.406668,26769,87
2026-07-01T01:18:11.406668,26779,72
2026-07-01T01:18:11.406668,26790,93
2026-07-01T01:18:11.406668,26800,61
2026-07-01T01:18:11.406668,26811,111
2026-07-01T01:18:11.878950,27348,89
2026-07-01T01:18:11.878950,27359,70
2026-07-01T01:18:11.878950,27370,120
2026-07-01T01:18:11.878950,27381,57
2026-07-01T01:18:11.878950,27391,124
2026-07-01T01:18:12.428789,27809,104
2026-07-01T01:18:12.428789,27820,52
2026-07-01T01:18:12.428789,27830,122
2026-07-01T01:18:12.428789,27840,57
2026-07-01T01:18:12.428789,27850,123
2026-07-01T01:18:12.690407,28320,61
2026-07-01T01:18:12.690407,28331,116
2026-07-01T01:18:12.690407,28341,64
2026-07-01T01:18:12.690407,28352,114
2026-07-01T01:18:12.690407,28362,67
2026-07-01T01:18:13.058899,28584,79
2026-07-01T01:18:13.058899,28595,74
2026-07-01T01:18:13.058899,28605,85
2026-07-01T01:18:13.058899,28616,68
2026-07-01T01:18:13.058899,28626,88
2026-07-01T01:18:13.808139,28987,108
2026-07-01T01:18:13.808139,28997,51
2026-07-01T01:18:13.808139,29007,116
2026-07-01T01:18:13.808139,29017,55
2026-07-01T01:18:13.808139,29028,121
2026-07-01T01:18:14.632518,29708,116
2026-07-01T01:18:14.632518,29718,64
2026-07-01T01:18:14.632518,29729,114
2026-07-01T01:18:14.632518,29739,67
2026-07-01T01:18:14.632518,29749,111
2026-07-01T01:18:14.812596,30570,87
2026-07-01T01:18:14.812596,30580,80
2026-07-01T01:18:14.812596,30590,86
2026-07-01T01:18:14.812596,30600,80
2026-07-01T01:18:14.812596,30611,76
2026-07-01T01:18:15.007708,30813,50
2026-07-01T01:18:15.007708,30823,116
2026-07-01T01:18:15.007708,30834,56
2026-07-01T01:18:15.007708,30844,120
2026-07-01T01:18:15.007708,30854,58
2026-07-01T01:18:15.152057,30941,89
2026-07-01T01:18:15.152057,30952,57
2026-07-01T01:18:15.152057,30962,104
2026-07-01T01:18:15.152057,30972,48
2026-07-01T01:18:15.152057,30983,113
2026-07-01T01:18:15.318966,31065,116
2026-07-01T01:18:15.318966,31076,64
2026-07-01T01:18:15.318966,31086,115
2026-07-01T01:18:15.318966,31096,65
2026-07-01T01:18:15.318966,31106,112
2026-07-01T01:18:15.447979,31211,60
2026-07-01T01:18:15.447979,31222,106
2026-07-01T01:18:15.447979,31232,50
2026-07-01T01:18:15.447979,31242,113
2026-07-01T01:18:15.447979,31252,52
2026-07-01T01:18:15.623469,31430,69
2026-07-01T01:18:15.623469,31441,94
2026-07-01T01:18:15.623469,31451,55
2026-07-01T01:18:15.623469,31461,106
2026-07-01T01:18:15.623469,31471,49
2026-07-01T01:18:15.804488,31567,100
2026-07-01T01:18:15.804488,31578,77
2026-07-01T01:18:15.804488,31588,78
2026-07-01T01:18:15.804488,31598,81
2026-07-01T01:18:15.804488,31609,75
2026-07-01T01:18:16.027351,31736,68
2026-07-01T01:18:16.027351,31746,108
2026-07-01T01:18:16.027351,31756,73
2026-07-01T01:18:16.027351,31767,92
2026-07-01T01:18:16.027351,31777,77
2026-07-01T01:18:16.154119,31944,114
2026-07-01T01:18:16.154119,31955,67
2026-07-01T01:18:16.154119,31965,109
2026-07-01T01:18:16.154119,31975,70
2026-07-01T01:18:16.154119,31986,103
2026-07-01T01:18:16.295655,32081,115
2026-07-01T01:18:16.295655,32091,55
2026-07-01T01:18:16.295655,32102,120
2026-07-01T01:18:16.295655,32112,58
2026-07-01T01:18:16.295655,32122,116
2026-07-01T01:18:16.401731,32195,69
2026-07-01T01:18:16.401731,32206,99
2026-07-01T01:18:16.401731,32216,76
2026-07-01T01:18:16.401731,32226,81
2026-07-01T01:18:16.401731,32237,80
2026-07-01T01:18:16.504225,32315,68
2026-07-01T01:18:16.504225,32325,102
2026-07-01T01:18:16.504225,32335,75
2026-07-01T01:18:16.504225,32346,87
2026-07-01T01:18:16.504225,32356,77
2026-07-01T01:18:16.635138,32422,115
2026-07-01T01:18:16.635138,32433,62
2026-07-01T01:18:16.635138,32443,113
2026-07-01T01:18:16.635138,32453,66
2026-07-01T01:18:16.635138,32463,110
2026-07-01T01:18:16.746795,32538,87
2026-07-01T01:18:16.746795,32548,62
2026-07-01T01:18:16.746795,32559,103
2026-07-01T01:18:16.746795,32569,49
2026-07-01T01:18:16.746795,32579,113
2026-07-01T01:18:16.858549,32672,61
2026-07-01T01:18:16.858549,32682,113
2026-07-01T01:18:16.858549,32692,64
2026-07-01T01:18:16.858549,32703,111
2026-07-01T01:18:16.858549,32713,66
2026-07-01T01:18:17.021145,32784,102
2026-07-01T01:18:17.021145,32795,76
2026-07-01T01:18:17.021145,32805,84
2026-07-01T01:18:17.021145,32815,80
2026-07-01T01:18:17.021145,32826,78
2026-07-01T01:18:17.164456,32919,116
2026-07-01T01:18:17.164456,32930,56
2026-07-01T01:18:17.164456,32940,117
2026-07-01T01:18:17.164456,32951,60
2026-07-01T01:18:17.164456,32961,115
2026-07-01T01:18:17.347659,33100,117
2026-07-01T01:18:17.347659,33111,62
2026-07-01T01:18:17.347659,33122,114
2026-07-01T01:18:17.347659,33132,67
2026-07-01T01:18:17.347659,33142,110
2026-07-01T01:18:17.427087,33247,67
2026-07-01T01:18:17.427087,33257,100
2026-07-01T01:18:17.427087,33268,49
2026-07-01T01:18:17.427087,33279,118
2026-07-01T01:18:17.427087,33289,57
2026-07-01T01:18:17.715830,33323,104
2026-07-01T01:18:17.715830,33333,74
2026-07-01T01:18:17.715830,33343,93
2026-07-01T01:18:17.715830,33354,76
2026-07-01T01:18:17.715830,33364,84
2026-07-01T01:18:17.896825,33606,57
2026-07-01T01:18:17.896825,33617,106
2026-07-01T01:18:17.896825,33627,50
2026-07-01T01:18:17.896825,33637,113
2026-07-01T01:18:17.896825,33647,55
2026-07-01T01:18:18.131686,33878,117
2026-07-01T01:18:18.131686,33889,61
2026-07-01T01:18:18.131686,33899,115
2026-07-01T01:18:18.131686,33910,64
2026-07-01T01:18:18.131686,33920,114
2026-07-01T01:18:18.283226,34052,70
2026-07-01T01:18:18.283226,34062,94
2026-07-01T01:18:18.283226,34072,76
2026-07-01T01:18:18.283226,34083,75
2026-07-01T01:18:18.283226,34093,84
2026-07-01T01:18:18.471400,34183,76
2026-07-01T01:18:18.471400,34193,84
2026-07-01T01:18:18.471400,34204,69
2026-07-01T01:18:18.471400,34214,88
2026-07-01T01:18:18.471400,34225,67
2026-07-01T01:18:19.082721,34423,70
2026-07-01T01:18:19.082721,34433,84
2026-07-01T01:18:19.082721,34443,69
2026-07-01T01:18:19.082721,34454,87
2026-07-01T01:18:19.082721,34464,67
2026-07-01T01:18:19.623809,35022,69
2026-07-01T01:18:19.623809,35032,85
2026-07-01T01:18:19.623809,35043,67
2026-07-01T01:18:19.623809,35053,93
2026-07-01T01:18:19.623809,35064,52
2026-07-01T01:18:20.388404,35787,65
2026-07-01T01:18:20.388404,35797,106
2026-07-01T01:18:20.388404,35808,69
2026-07-01T01:18:20.388404,35818,103
2026-07-01T01:18:20.388404,35828,72
2026-07-01T01:18:20.708146,36351,89
2026-07-01T01:18:20.708146,36361,56
2026-07-01T01:18:20.708146,36371,104
2026-07-01T01:18:20.708146,36381,48
2026-07-01T01:18:20.708146,36392,110
2026-07-01T01:18:21.051766,36614,115
2026-07-01T01:18:21.051766,36624,62
2026-07-01T01:18:21.051766,36635,114
2026-07-01T01:18:21.051766,36645,65
2026-07-01T01:18:21.051766,36655,112
2026-07-01T01:18:21.382289,36972,116
2026-07-01T01:18:21.382289,36982,57
2026-07-01T01:18:21.382289,36992,116
2026-07-01T01:18:21.382289,37003,61
2026-07-01T01:18:21.382289,37014,114
2026-07-01T01:18:21.645841,37317,74
2026-07-01T01:18:21.645841,37328,86
2026-07-01T01:18:21.645841,37339,65
2026-07-01T01:18:21.645841,37349,90
2026-07-01T01:18:21.645841,37359,51
2026-07-01T01:18:22.068169,37555,96
2026-07-01T01:18:22.068169,37566,76
2026-07-01T01:18:22.068169,37576,78
2026-07-01T01:18:22.068169,37586,80
2026-07-01T01:18:22.068169,37597,74
2026-07-01T01:18:22.610185,37996,74
2026-07-01T01:18:22.610185,38007,86
2026-07-01T01:18:22.610185,38017,67
2026-07-01T01:18:22.610185,38028,102
2026-07-01T01:18:22.610185,38039,48
2026-07-01T01:18:23.012208,38508,110
2026-07-01T01:18:23.012208,38519,52
2026-07-01T01:18:23.012208,38529,116
2026-07-01T01:18:23.012208,38539,57
2026-07-01T01:18:23.012208,38550,115
2026-07-01T01:18:23.637990,39410,112
2026-07-01T01:18:23.637990,39420,65
2026-07-01T01:18:23.637990,39431,106
2026-07-01T01:18:23.637990,39441,68
2026-07-01T01:18:23.637990,39451,103
2026-07-01T01:18:24.155888,39536,48
2026-07-01T01:18:24.155888,39546,114
2026-07-01T01:18:24.155888,39557,53
2026-07-01T01:18:24.155888,39567,116
2026-07-01T01:18:24.155888,39577,57
2026-07-01T01:18:24.953306,40059,66
2026-07-01T01:18:24.953306,40070,104
2026-07-01T01:18:24.953306,40080,70
2026-07-01T01:18:24.953306,40091,89
2026-07-01T01:18:24.953306,40101,75
2026-07-01T01:18:26.208620,40907,112
2026-07-01T01:18:26.208620,40917,64
2026-07-01T01:18:26.208620,40927,108
2026-07-01T01:18:26.208620,40937,65
2026-07-01T01:18:26.208620,40948,106
2026-07-01T01:18:26.708483,42117,73
2026-07-01T01:18:26.708483,42127,78
2026-07-01T01:18:26.708483,42138,78
2026-07-01T01:18:26.708483,42148,70
2026-07-01T01:18:26.708483,42158,84
2026-07-01T01:18:26.963333,42602,113
2026-07-01T01:18:26.963333,42613,62
2026-07-01T01:18:26.963333,42624,109
2026-07-01T01:18:26.963333,42634,65
2026-07-01T01:18:26.963333,42644,106
2026-07-01T01:18:27.279834,42941,115
2026-07-01T01:18:27.279834,42952,61
2026-07-01T01:18:27.279834,42962,113
2026-07-01T01:18:27.279834,42972,63
2026-07-01T01:18:27.279834,42983,110
2026-07-01T01:18:27.748973,43344,97
2026-07-01T01:18:27.748973,43355,75
2026-07-01T01:18:27.748973,43365,77
2026-07-01T01:18:27.748973,43375,79
2026-07-01T01:18:27.748973,43386,73
2026-07-01T01:18:28.153308,43681,112
2026-07-01T01:18:28.153308,43692,64
2026-07-01T01:18:28.153308,43702,106
2026-07-01T01:18:28.153308,43712,65
2026-07-01T01:18:28.153308,43722,104
2026-07-01T01:18:28.567274,44049,57
2026-07-01T01:18:28.567274,44059,113
2026-07-01T01:18:28.567274,44070,61
2026-07-01T01:18:28.567274,44080,112
2026-07-01T01:18:28.567274,44090,62
2026-07-01T01:18:28.672269,44463,75
2026-07-01T01:18:28.672269,44474,80
2026-07-01T01:18:28.672269,44484,69
2026-07-01T01:18:28.672269,44494,84
2026-07-01T01:18:28.672269,44505,65
2026-07-01T01:18:28.797074,44562,94
2026-07-01T01:18:28.797074,44572,75
2026-07-01T01:18:28.797074,44583,76
2026-07-01T01:18:28.797074,44593,78
2026-07-01T01:18:28.797074,44604,67
2026-07-01T01:18:29.075717,44691,68
2026-07-01T01:18:29.075717,44702,85
2026-07-01T01:18:29.075717,44712,76
2026-07-01T01:18:29.075717,44723,74
2026-07-01T01:18:29.075717,44733,80
2026-07-01T01:18:29.519963,44968,57
2026-07-01T01:18:29.519963,44978,112
2026-07-01T01:18:29.519963,44989,61
2026-07-01T01:18:29.519963,44999,109
2026-07-01T01:18:29.519963,45009,64
2026-07-01T01:18:29.749213,45482,68
2026-07-01T01:18:29.749213,45493,86
2026-07-01T01:18:29.749213,45503,61
2026-07-01T01:18:29.749213,45514,98
2026-07-01T01:18:29.749213,45524,48
2026-07-01T01:18:30.099424,45646,55
2026-07-01T01:18:30.099424,45656,112
2026-07-01T01:18:30.099424,45666,60
2026-07-01T01:18:30.099424,45677,110
2026-07-01T01:18:30.099424,45687,61
2026-07-01T01:18:30.310324,46004,50
2026-07-01T01:18:30.310324,46014,114
2026-07-01T01:18:30.310324,46025,55
2026-07-01T01:18:30.310324,46035,114
2026-07-01T01:18:30.310324,46045,57
2026-07-01T01:18:30.637988,46209,70
2026-07-01T01:18:30.637988,46219,84
2026-07-01T01:18:30.637988,46230,77
2026-07-01T01:18:30.637988,46240,75
2026-07-01T01:18:30.637988,46250,80
2026-07-01T01:18:31.547532,46530,78
2026-07-01T01:18:31.547532,46540,68
2026-07-01T01:18:31.547532,46551,85
2026-07-01T01:18:31.547532,46561,62
2026-07-01T01:18:31.547532,46572,103
2026-07-01T01:18:31.769521,47451,108
2026-07-01T01:18:31.769521,47461,52
2026-07-01T01:18:31.769521,47472,114
2026-07-01T01:18:31.769521,47482,56
2026-07-01T01:18:31.769521,47492,113
2026-07-01T01:18:32.052708,47719,65
2026-07-01T01:18:32.052708,47729,87
2026-07-01T01:18:32.052708,47739,52
2026-07-01T01:18:32.052708,47750,102
2026-07-01T01:18:32.052708,47760,49
2026-07-01T01:18:32.282621,47953,109
2026-07-01T01:18:32.282621,47964,65
2026-07-01T01:18:32.282621,47975,101
2026-07-01T01:18:32.282621,47985,69
2026-07-01T01:18:32.282621,47995,96
2026-07-01T01:18:32.750948,48229,106
2026-07-01T01:18:32.750948,48240,52
2026-07-01T01:18:32.750948,48250,114
2026-07-01T01:18:32.750948,48261,57
2026-07-01T01:18:32.750948,48271,113
2026-07-01T01:18:32.969441,48642,62
2026-07-01T01:18:32.969441,48652,108
2026-07-01T01:18:32.969441,48663,65
2026-07-01T01:18:32.969441,48673,103
2026-07-01T01:18:32.969441,48683,69
2026-07-01T01:18:33.379502,48865,77
2026-07-01T01:18:33.379502,48875,70
2026-07-01T01:18:33.379502,48886,84
2026-07-01T01:18:33.379502,48896,68
2026-07-01T01:18:33.379502,48906,85
2026-07-01T01:18:33.670961,49273,98
2026-07-01T01:18:33.670961,49283,73
2026-07-01T01:18:33.670961,49293,80
2026-07-01T01:18:33.670961,49304,76
2026-07-01T01:18:33.670961,49314,76
2026-07-01T01:18:34.080389,49572,99
2026-07-01T01:18:34.080389,49582,70
2026-07-01T01:18:34.080389,49593,78
2026-07-01T01:18:34.080389,49604,77
2026-07-01T01:18:34.080389,49614,74
2026-07-01T01:18:34.733701,49982,72
2026-07-01T01:18:34.733701,49992,77
2026-07-01T01:18:34.733701,50002,72
2026-07-01T01:18:34.733701,50013,77
2026-07-01T01:18:34.733701,50023,78
2026-07-01T01:18:35.303054,50637,57
2026-07-01T01:18:35.303054,50647,111
2026-07-01T01:18:35.303054,50658,61
2026-07-01T01:18:35.303054,50668,109
2026-07-01T01:18:35.303054,50678,64
2026-07-01T01:18:35.731185,51248,105
2026-07-01T01:18:35.731185,51259,67
2026-07-01T01:18:35.731185,51269,97
2026-07-01T01:18:35.731185,51279,70
2026-07-01T01:18:35.731185,51290,81
2026-07-01T01:18:36.003859,51656,60
2026-07-01T01:18:36.003859,51666,108
2026-07-01T01:18:36.003859,51677,65
2026-07-01T01:18:36.003859,51687,103
2026-07-01T01:18:36.003859,51698,67
2026-07-01T01:18:36.347072,51914,55
2026-07-01T01:18:36.347072,51925,111
2026-07-01T01:18:36.347072,51935,60
2026-07-01T01:18:36.347072,51945,109
2026-07-01T01:18:36.347072,51956,62
2026-07-01T01:18:36.660295,52237,65
2026-07-01T01:18:36.660295,52248,89
2026-07-01T01:18:36.660295,52258,73
2026-07-01T01:18:36.660295,52268,74
2026-07-01T01:18:36.660295,52279,77
2026-07-01T01:18:36.860638,52581,94
2026-07-01T01:18:36.860638,52591,46
2026-07-01T01:18:36.860638,52601,106
2026-07-01T01:18:36.860638,52612,50
2026-07-01T01:18:36.860638,52622,113
2026-07-01T01:18:37.063946,52749,68
2026-07-01T01:18:37.063946,52759,81
2026-07-01T01:18:37.063946,52770,58
2026-07-01T01:18:37.063946,52780,96
2026-07-01T01:18:37.063946,52790,46
2026-07-01T01:18:37.589759,52953,57
2026-07-01T01:18:37.589759,52964,108
2026-07-01T01:18:37.589759,52974,61
2026-07-01T01:18:37.589759,52986,97
2026-07-01T01:18:37.589759,52996,69
2026-07-01T01:18:37.912228,53492,58
2026-07-01T01:18:37.912228,53503,106
2026-07-01T01:18:37.912228,53513,62
2026-07-01T01:18:37.912228,53524,104
2026-07-01T01:18:37.912228,53535,68
2026-07-01T01:18:38.444842,53807,66
2026-07-01T01:18:38.444842,53818,87
2026-07-01T01:18:38.444842,53828,49
2026-07-01T01:18:38.444842,53839,102
2026-07-01T01:18:38.444842,53849,46
2026-07-01T01:18:38.804758,54377,86
2026-07-01T01:18:38.804758,54388,45
2026-07-01T01:18:38.804758,54398,109
2026-07-01T01:18:38.804758,54409,52
2026-07-01T01:18:38.804758,54419,113
2026-07-01T01:18:39.270217,54724,77
2026-07-01T01:18:39.270217,54734,77
2026-07-01T01:18:39.270217,54745,67
2026-07-01T01:18:39.270217,54755,81
2026-07-01T01:18:39.270217,54766,64
2026-07-01T01:18:39.638346,55178,112
2026-07-01T01:18:39.638346,55189,57
2026-07-01T01:18:39.638346,55199,109
2026-07-01T01:18:39.638346,55210,61
2026-07-01T01:18:39.638346,55220,108
2026-07-01T01:18:39.929989,55733,77
2026-07-01T01:18:39.929989,55743,70
2026-07-01T01:18:39.929989,55753,81
2026-07-01T01:18:39.929989,55763,67
2026-07-01T01:18:39.929989,55774,84
2026-07-01T01:18:40.223536,55820,103
2026-07-01T01:18:40.223536,55830,68
2026-07-01T01:18:40.223536,55841,97
2026-07-01T01:18:40.223536,55851,72
2026-07-01T01:18:40.223536,55862,81
2026-07-01T01:18:41.764599,56147,58
2026-07-01T01:18:41.764599,56158,109
2026-07-01T01:18:41.764599,56168,61
2026-07-01T01:18:41.764599,56179,104
2026-07-01T01:18:41.764599,56189,65
2026-07-01T01:18:41.901720,57673,111
2026-07-01T01:18:41.901720,57684,54
2026-07-01T01:18:41.901720,57694,109
2026-07-01T01:18:41.901720,57705,56
2026-07-01T01:18:41.901720,57715,108
2026-07-01T01:18:42.097961,57792,106
2026-07-01T01:18:42.097961,57803,52
2026-07-01T01:18:42.097961,57813,111
2026-07-01T01:18:42.097961,57824,56
2026-07-01T01:18:42.097961,57835,106
2026-07-01T01:18:42.311414,58078,76
2026-07-01T01:18:42.311414,58089,77
2026-07-01T01:18:42.311414,58099,67
2026-07-01T01:18:42.311414,58109,80
2026-07-01T01:18:42.311414,58120,65
2026-07-01T01:18:42.452472,58239,69
2026-07-01T01:18:42.452472,58249,80
2026-07-01T01:18:42.452472,58260,64
2026-07-01T01:18:42.452472,58270,85
2026-07-01T01:18:42.452472,58280,53
2026-07-01T01:18:42.591916,58354,108
2026-07-01T01:18:42.591916,58364,60
2026-07-01T01:18:42.591916,58375,105
2026-07-01T01:18:42.591916,58386,64
2026-07-01T01:18:42.591916,58396,99
2026-07-01T01:18:42.681395,58488,77
2026-07-01T01:18:42.681395,58499,65
2026-07-01T01:18:42.681395,58509,82
2026-07-01T01:18:42.681395,58520,60
2026-07-01T01:18:42.681395,58530,91
2026-07-01T01:18:42.756747,58571,100
2026-07-01T01:18:42.756747,58581,51
2026-07-01T01:18:42.756747,58592,112
2026-07-01T01:18:42.756747,58602,56
2026-07-01T01:18:42.756747,58612,111
2026-07-01T01:18:42.850864,58647,72
2026-07-01T01:18:42.850864,58657,70
2026-07-01T01:18:42.850864,58668,77
2026-07-01T01:18:42.850864,58678,68
2026-07-01T01:18:42.850864,58689,81
2026-07-01T01:18:43.368268,58930,106
2026-07-01T01:18:43.368268,58941,52
2026-07-01T01:18:43.368268,58951,113
2026-07-01T01:18:43.368268,58961,55
2026-07-01T01:18:43.368268,58972,112
2026-07-01T01:18:43.824949,59314,103
2026-07-01T01:18:43.824949,59324,67
2026-07-01T01:18:43.824949,59335,98
2026-07-01T01:18:43.824949,59345,69
2026-07-01T01:18:43.824949,59355,89
2026-07-01T01:18:44.234036,59732,109
2026-07-01T01:18:44.234036,59743,63
2026-07-01T01:18:44.234036,59753,104
2026-07-01T01:18:44.234036,59763,65
2026-07-01T01:18:44.234036,59773,103
2026-07-01T01:18:44.532641,60131,110
2026-07-01T01:18:44.532641,60141,61
2026-07-01T01:18:44.532641,60152,108
2026-07-01T01:18:44.532641,60162,64
2026-07-01T01:18:44.532641,60172,104
2026-07-01T01:18:44.744834,60426,84
2026-07-01T01:18:44.744834,60437,64
2026-07-01T01:18:44.744834,60447,96
2026-07-01T01:18:44.744834,60457,49
2026-07-01T01:18:44.744834,60468,106
2026-07-01T01:18:44.913054,60642,67
2026-07-01T01:18:44.913054,60654,82
2026-07-01T01:18:44.913054,60664,76
2026-07-01T01:18:44.913054,60674,70
2026-07-01T01:18:44.913054,60684,78
2026-07-01T01:18:44.990714,60803,69
2026-07-01T01:18:44.990714,60813,84
2026-07-01T01:18:44.990714,60824,75
2026-07-01T01:18:44.990714,60834,69
2026-07-01T01:18:44.990714,60845,80
2026-07-01T01:18:45.065792,60882,65
2026-07-01T01:18:45.065792,60892,100
2026-07-01T01:18:45.065792,60902,69
2026-07-01T01:18:45.065792,60913,85
2026-07-01T01:18:45.065792,60923,75
2026-07-01T01:18:45.162164,60956,57
2026-07-01T01:18:45.162164,60967,103
2026-07-01T01:18:45.162164,60977,51
2026-07-01T01:18:45.162164,60988,112
2026-07-01T01:18:45.162164,60998,55
2026-07-01T01:18:45.269379,61051,104
2026-07-01T01:18:45.269379,61061,66
2026-07-01T01:18:45.269379,61072,99
2026-07-01T01:18:45.269379,61082,69
2026-07-01T01:18:45.269379,61093,84
2026-07-01T01:18:45.382548,61168,112
2026-07-01T01:18:45.382548,61179,58
2026-07-01T01:18:45.382548,61189,109
2026-07-01T01:18:45.382548,61200,61
2026-07-01T01:18:45.382548,61210,108
2026-07-01T01:18:45.487518,61278,57
2026-07-01T01:18:45.487518,61289,110
2026-07-01T01:18:45.487518,61299,61
2026-07-01T01:18:45.487518,61310,108
2026-07-01T01:18:45.487518,61320,64
2026-07-01T01:18:45.565727,61376,49
2026-07-01T01:18:45.565727,61387,110
2026-07-01T01:18:45.565727,61397,56
2026-07-01T01:18:45.565727,61408,113
2026-07-01T01:18:45.565727,61418,57
2026-07-01T01:18:45.655504,61454,67
2026-07-01T01:18:45.655504,61464,84
2026-07-01T01:18:45.655504,61475,64
2026-07-01T01:18:45.655504,61485,93
2026-07-01T01:18:45.655504,61496,48
2026-07-01T01:18:45.767933,61551,101
2026-07-01T01:18:45.767933,61561,69
2026-07-01T01:18:45.767933,61572,90
2026-07-01T01:18:45.767933,61582,73
2026-07-01T01:18:45.767933,61593,76
2026-07-01T01:18:45.891106,61706,99
2026-07-01T01:18:45.891106,61716,51
2026-07-01T01:18:45.891106,61727,113
2026-07-01T01:18:45.891106,61737,57
2026-07-01T01:18:45.891106,61748,112
2026-07-01T01:18:45.986145,61786,110
2026-07-01T01:18:45.986145,61797,55
2026-07-01T01:18:45.986145,61807,112
2026-07-01T01:18:45.986145,61818,57
2026-07-01T01:18:45.986145,61828,109
2026-07-01T01:18:46.080400,61877,55
2026-07-01T01:18:46.080400,61887,112
2026-07-01T01:18:46.080400,61898,58
2026-07-01T01:18:46.080400,61908,109
2026-07-01T01:18:46.080400,61918,60
2026-07-01T01:18:46.169475,61981,70
2026-07-01T01:18:46.169475,61992,80
2026-07-01T01:18:46.169475,62002,75
2026-07-01T01:18:46.169475,62012,70
2026-07-01T01:18:46.169475,62023,80
2026-07-01T01:18:46.267258,62067,113
2026-07-01T01:18:46.267258,62077,57
2026-07-01T01:18:46.267258,62088,109
2026-07-01T01:18:46.267258,62098,61
2026-07-01T01:18:46.267258,62108,108
2026-07-01T01:18:46.433775,62156,55
2026-07-01T01:18:46.433775,62167,110
2026-07-01T01:18:46.433775,62178,60
2026-07-01T01:18:46.433775,62188,109
2026-07-01T01:18:46.433775,62198,61
2026-07-01T01:18:46.551341,62334,64
2026-07-01T01:18:46.551341,62344,96
2026-07-01T01:18:46.551341,62355,49
2026-07-01T01:18:46.551341,62365,109
2026-07-01T01:18:46.551341,62375,53
2026-07-01T01:18:46.649017,62441,72
2026-07-01T01:18:46.649017,62452,72
2026-07-01T01:18:46.649017,62462,79
2026-07-01T01:18:46.649017,62473,64
2026-07-01T01:18:46.649017,62483,86
2026-07-01T01:18:46.791737,62585,109
2026-07-01T01:18:46.791737,62596,56
2026-07-01T01:18:46.791737,62606,111
2026-07-01T01:18:46.791737,62617,58
2026-07-01T01:18:46.791737,62627,109
2026-07-01T01:18:46.914340,62695,55
2026-07-01T01:18:46.914340,62706,112
2026-07-01T01:18:46.914340,62716,57
2026-07-01T01:18:46.914340,62727,109
2026-07-01T01:18:46.914340,62737,61
2026-07-01T01:18:47.106935,62877,58
2026-07-01T01:18:47.106935,62887,108
2026-07-01T01:18:47.106935,62897,61
2026-07-01T01:18:47.106935,62907,106
2026-07-01T01:18:47.106935,62918,62
2026-07-01T01:18:47.356371,63072,65
2026-07-01T01:18:47.356371,63083,86
2026-07-01T01:18:47.356371,63093,49
2026-07-01T01:18:47.356371,63103,102
2026-07-01T01:18:47.356371,63114,50
2026-07-01T01:18:47.532820,63245,112
2026-07-01T01:18:47.532820,63256,58
2026-07-01T01:18:47.532820,63266,109
2026-07-01T01:18:47.532820,63277,61
2026-07-01T01:18:47.532820,63287,106
2026-07-01T01:18:47.645912,63455,56
2026-07-01T01:18:47.645912,63465,110
2026-07-01T01:18:47.645912,63475,58
2026-07-01T01:18:47.645912,63486,109
2026-07-01T01:18:47.645912,63496,61
2026-07-01T01:18:47.762315,63537,64
2026-07-01T01:18:47.762315,63548,102
2026-07-01T01:18:47.762315,63558,67
2026-07-01T01:18:47.762315,63568,98
2026-07-01T01:18:47.762315,63578,69
2026-07-01T01:18:47.840077,63652,51
2026-07-01T01:18:47.840077,63663,103
2026-07-01T01:18:47.840077,63673,52
2026-07-01T01:18:47.840077,63684,112
2026-07-01T01:18:47.840077,63694,56
2026-07-01T01:18:47.934771,63731,65
2026-07-01T01:18:47.934771,63742,88
2026-07-01T01:18:47.934771,63752,48
2026-07-01T01:18:47.934771,63763,104
2026-07-01T01:18:47.934771,63773,52
2026-07-01T01:18:48.051916,63823,112
2026-07-01T01:18:48.051916,63834,56
2026-07-01T01:18:48.051916,63844,112
2026-07-01T01:18:48.051916,63855,57
2026-07-01T01:18:48.051916,63865,109
2026-07-01T01:18:48.157898,63944,113
2026-07-01T01:18:48.157898,63954,57
2026-07-01T01:18:48.157898,63965,109
2026-07-01T01:18:48.157898,63975,60
2026-07-01T01:18:48.157898,63985,109
2026-07-01T01:18:48.289652,64046,104
2026-07-01T01:18:48.289652,64057,67
2026-07-01T01:18:48.289652,64068,90
2026-07-01T01:18:48.289652,64078,72
2026-07-01T01:18:48.289652,64089,78
2026-07-01T01:18:48.399156,64217,69
2026-07-01T01:18:48.399156,64228,86
2026-07-01T01:18:48.399156,64238,74
2026-07-01T01:18:48.399156,64248,78
2026-07-01T01:18:48.399156,64258,75
2026-07-01T01:18:48.480895,64294,58
2026-07-01T01:18:48.480895,64305,109
2026-07-01T01:18:48.480895,64315,62
2026-07-01T01:18:48.480895,64325,106
2026-07-01T01:18:48.480895,64336,64
2026-07-01T01:18:48.570303,64371,54
2026-07-01T01:18:48.570303,64382,102
2026-07-01T01:18:48.570303,64392,52
2026-07-01T01:18:48.570303,64403,113
2026-07-01T01:18:48.570303,64413,56
2026-07-01T01:18:48.657382,64467,96
2026-07-01T01:18:48.657382,64478,73
2026-07-01T01:18:48.657382,64488,75
2026-07-01T01:18:48.657382,64499,77
2026-07-01T01:18:48.657382,64509,67
2026-07-01T01:18:48.750687,64547,96
2026-07-01T01:18:48.750687,64557,73
2026-07-01T01:18:48.750687,64568,77
2026-07-01T01:18:48.750687,64578,77
2026-07-01T01:18:48.750687,64588,68
2026-07-01T01:18:48.865586,64640,84
2026-07-01T01:18:48.865586,64650,58
2026-07-01T01:18:48.865586,64661,98
2026-07-01T01:18:48.865586,64671,49
2026-07-01T01:18:48.865586,64681,105
2026-07-01T01:18:48.956248,64767,80
2026-07-01T01:18:48.956248,64778,76
2026-07-01T01:18:48.956248,64788,66
2026-07-01T01:18:48.956248,64799,80
2026-07-01T01:18:48.956248,64809,65
2026-07-01T01:18:49.469405,64857,72
2026-07-01T01:18:49.469405,64867,77
2026-07-01T01:18:49.469405,64878,76
2026-07-01T01:18:49.469405,64888,68
2026-07-01T01:18:49.469405,64899,81
2026-07-01T01:18:49.853521,65359,89
2026-07-01T01:18:49.853521,65370,49
2026-07-01T01:18:49.853521,65380,108
2026-07-01T01:18:49.853521,65391,53
2026-07-01T01:18:49.853521,65401,112
2026-07-01T01:18:50.087265,65751,56
2026-07-01T01:18:50.087265,65762,108
2026-07-01T01:18:50.087265,65772,60
2026-07-01T01:18:50.087265,65782,105
2026-07-01T01:18:50.087265,65793,61
2026-07-01T01:18:50.438484,65979,106
2026-07-01T01:18:50.438484,65990,52
2026-07-01T01:18:50.438484,66000,110
2026-07-01T01:18:50.438484,66010,56
2026-07-01T01:18:50.438484,66021,109
2026-07-01T01:18:50.772849,66379,109
2026-07-01T01:18:50.772849,66389,55
2026-07-01T01:18:50.772849,66400,108
2026-07-01T01:18:50.772849,66410,57
2026-07-01T01:18:50.772849,66421,106
2026-07-01T01:18:51.151918,66731,62
2026-07-01T01:18:51.151918,66742,99
2026-07-01T01:18:51.151918,66752,65
2026-07-01T01:18:51.151918,66762,96
2026-07-01T01:18:51.151918,66773,68
2026-07-01T01:18:51.351170,67093,69
2026-07-01T01:18:51.351170,67103,76
2026-07-01T01:18:51.351170,67113,75
2026-07-01T01:18:51.351170,67124,69
2026-07-01T01:18:51.351170,67135,81
2026-07-01T01:18:51.428760,67242,81
2026-07-01T01:18:51.428760,67253,74
2026-07-01T01:18:51.428760,67264,66
2026-07-01T01:18:51.428760,67274,78
2026-07-01T01:18:51.428760,67284,65
2026-07-01T01:18:51.508891,67318,109
2026-07-01T01:18:51.508891,67328,56
2026-07-01T01:18:51.508891,67339,106
2026-07-01T01:18:51.508891,67349,60
2026-07-01T01:18:51.508891,67360,104
2026-07-01T01:18:51.604842,67399,106
2026-07-01T01:18:51.604842,67409,60
2026-07-01T01:18:51.604842,67420,103
2026-07-01T01:18:51.604842,67430,62
2026-07-01T01:18:51.604842,67440,100
2026-07-01T01:18:51.678937,67496,102
2026-07-01T01:18:51.678937,67507,51
2026-07-01T01:18:51.678937,67517,109
2026-07-01T01:18:51.678937,67527,55
2026-07-01T01:18:51.678937,67538,108
2026-07-01T01:18:51.755333,67570,64
2026-07-01T01:18:51.755333,67581,96
2026-07-01T01:18:51.755333,67591,68
2026-07-01T01:18:51.755333,67602,80
2026-07-01T01:18:51.755333,67612,72
2026-07-01T01:18:51.846575,67660,98
2026-07-01T01:18:51.846575,67671,67
2026-07-01T01:18:51.846575,67681,81
2026-07-01T01:18:51.846575,67692,70
2026-07-01T01:18:51.846575,67702,76
2026-07-01T01:18:51.927663,67739,103
2026-07-01T01:18:51.927663,67750,64
2026-07-01T01:18:51.927663,67760,96
2026-07-01T01:18:51.927663,67771,68
2026-07-01T01:18:51.927663,67781,82
2026-07-01T01:18:52.023417,67821,80
2026-07-01T01:18:52.023417,67832,72
2026-07-01T01:18:52.023417,67842,68
2026-07-01T01:18:52.023417,67853,77
2026-07-01T01:18:52.023417,67863,64
2026-07-01T01:18:52.108476,67915,98
2026-07-01T01:18:52.108476,67925,49
2026-07-01T01:18:52.108476,67936,109
2026-07-01T01:18:52.108476,67946,52
2026-07-01T01:18:52.108476,67956,109
2026-07-01T01:18:52.190953,68001,76
2026-07-01T01:18:52.190953,68011,69
2026-07-01T01:18:52.190953,68021,75
2026-07-01T01:18:52.190953,68032,75
2026-07-01T01:18:52.190953,68042,65
2026-07-01T01:18:52.287898,68099,102
2026-07-01T01:18:52.287898,68109,63
2026-07-01T01:18:52.287898,68120,97
2026-07-01T01:18:52.287898,68130,67
2026-07-01T01:18:52.287898,68141,76
2026-07-01T01:18:52.393977,68183,62
2026-07-01T01:18:52.393977,68194,88
2026-07-01T01:18:52.393977,68204,46
2026-07-01T01:18:52.393977,68214,100
2026-07-01T01:18:52.393977,68225,49
2026-07-01T01:18:52.488390,68302,66
2026-07-01T01:18:52.488390,68312,80
2026-07-01T01:18:52.488390,68323,62
2026-07-01T01:18:52.488390,68333,86
2026-07-01T01:18:52.488390,68343,50
2026-07-01T01:18:52.584539,68391,74
2026-07-01T01:18:52.584539,68401,67
2026-07-01T01:18:52.584539,68412,78
2026-07-01T01:18:52.584539,68422,62
2026-07-01T01:18:52.584539,68433,82
2026-07-01T01:18:52.664101,68474,98
2026-07-01T01:18:52.664101,68484,49
2026-07-01T01:18:52.664101,68495,110
2026-07-01T01:18:52.664101,68505,52
2026-07-01T01:18:52.664101,68515,110
2026-07-01T01:18:52.748357,68554,98
2026-07-01T01:18:52.748357,68564,50
2026-07-01T01:18:52.748357,68574,109
2026-07-01T01:18:52.748357,68585,52
2026-07-01T01:18:52.748357,68595,110
2026-07-01T01:18:52.882892,68638,102
2026-07-01T01:18:52.882892,68648,64
2026-07-01T01:18:52.882892,68659,94
2026-07-01T01:18:52.882892,68669,69
2026-07-01T01:18:52.882892,68680,80
2026-07-01T01:18:52.962012,68772,81
2026-07-01T01:18:52.962012,68783,49
2026-07-01T01:18:52.962012,68793,100
2026-07-01T01:18:52.962012,68803,49
2026-07-01T01:18:52.962012,68814,106
2026-07-01T01:18:53.084170,68854,106
2026-07-01T01:18:53.084170,68864,51
2026-07-01T01:18:53.084170,68875,109
2026-07-01T01:18:53.084170,68885,55
2026-07-01T01:18:53.084170,68896,106
2026-07-01T01:18:53.196903,68973,105
2026-07-01T01:18:53.196903,68984,52
2026-07-01T01:18:53.196903,68995,108
2026-07-01T01:18:53.196903,69005,56
2026-07-01T01:18:53.196903,69015,106
2026-07-01T01:18:53.301966,69096,106
2026-07-01T01:18:53.301966,69106,60
2026-07-01T01:18:53.301966,69116,103
2026-07-01T01:18:53.301966,69127,62
2026-07-01T01:18:53.301966,69137,101
2026-07-01T01:18:56.235873,69200,67
2026-07-01T01:18:56.235873,69210,78
2026-07-01T01:18:56.235873,69221,61
2026-07-01T01:18:56.235873,69232,97
2026-07-01T01:18:56.235873,69243,49
2026-07-01T01:18:56.607459,72145,75
2026-07-01T01:18:56.607459,72155,64
2026-07-01T01:18:56.607459,72165,78
2026-07-01T01:18:56.607459,72176,62
2026-07-01T01:18:56.607459,72186,81
2026-07-01T01:18:56.761563,72505,78
2026-07-01T01:18:56.761563,72515,57
2026-07-01T01:18:56.761563,72526,96
2026-07-01T01:18:56.761563,72537,48
2026-07-01T01:18:56.761563,72547,104
2026-07-01T01:18:57.511856,72669,104
2026-07-01T01:18:57.511856,72680,58
2026-07-01T01:18:57.511856,72690,100
2026-07-01T01:18:57.511856,72701,62
2026-07-01T01:18:57.511856,72711,96
2026-07-01T01:18:57.915219,73409,102
2026-07-01T01:18:57.915219,73419,60
2026-07-01T01:18:57.915219,73430,97
2026-07-01T01:18:57.915219,73440,64
2026-07-01T01:18:57.915219,73451,81
2026-07-01T01:18:58.365341,73824,81
2026-07-01T01:18:58.365341,73834,44
2026-07-01T01:18:58.365341,73844,99
2026-07-01T01:18:58.365341,73855,49
2026-07-01T01:18:58.365341,73865,106
2026-07-01T01:18:58.484995,74290,76
2026-07-01T01:18:58.484995,74302,79
2026-07-01T01:18:58.484995,74312,61
2026-07-01T01:18:58.484995,74323,86
2026-07-01T01:18:58.484995,74333,50
2026-07-01T01:18:58.807171,74381,74
2026-07-01T01:18:58.807171,74391,63
2026-07-01T01:18:58.807171,74402,78
2026-07-01T01:18:58.807171,74412,60
2026-07-01T01:18:58.807171,74422,81
2026-07-01T01:18:59.240808,74701,75
2026-07-01T01:18:59.240808,74711,58
2026-07-01T01:18:59.240808,74722,80
2026-07-01T01:18:59.240808,74732,50
2026-07-01T01:18:59.240808,74742,92
2026-07-01T01:18:59.403534,75130,64
2026-07-01T01:18:59.403534,75141,76
2026-07-01T01:18:59.403534,75151,58
2026-07-01T01:18:59.403534,75161,85
2026-07-01T01:18:59.403534,75172,49
2026-07-01T01:18:59.493026,75310,61
2026-07-01T01:18:59.493026,75321,80
2026-07-01T01:18:59.493026,75331,50
2026-07-01T01:18:59.493026,75342,91
2026-07-01T01:18:59.493026,75352,45
2026-07-01T01:18:59.579119,75397,62
2026-07-01T01:18:59.579119,75407,89
2026-07-01T01:18:59.579119,75418,68
2026-07-01T01:18:59.579119,75428,76
2026-07-01T01:18:59.579119,75438,70
2026-07-01T01:18:59.671750,75483,104
2026-07-01T01:18:59.671750,75494,52
2026-07-01T01:18:59.671750,75504,103
2026-07-01T01:18:59.671750,75514,57
2026-07-01T01:18:59.671750,75525,102
2026-07-01T01:18:59.765496,75564,103
2026-07-01T01:18:59.765496,75575,57
2026-07-01T01:18:59.765496,75586,99
2026-07-01T01:18:59.765496,75596,60
2026-07-01T01:18:59.765496,75606,97
2026-07-01T01:18:59.844724,75658,69
2026-07-01T01:18:59.844724,75669,64
2026-07-01T01:18:59.844724,75679,75
2026-07-01T01:18:59.844724,75689,62
2026-07-01T01:18:59.844724,75700,77
2026-07-01T01:18:59.919246,75737,61
2026-07-01T01:18:59.919246,75747,87
2026-07-01T01:18:59.919246,75758,67
2026-07-01T01:18:59.919246,75768,74
2026-07-01T01:18:59.919246,75778,70
2026-07-01T01:18:59.998047,75816,58
2026-07-01T01:18:59.998047,75826,96
2026-07-01T01:18:59.998047,75837,64
2026-07-01T01:18:59.998047,75847,86
2026-07-01T01:18:59.998047,75857,66
2026-07-01T01:19:00.093169,75898,70
2026-07-01T01:19:00.093169,75909,67
2026-07-01T01:19:00.093169,75919,76
2026-07-01T01:19:00.093169,75930,61
2026-07-01T01:19:00.093169,75940,78
2026-07-01T01:19:00.170492,75986,98
2026-07-01T01:19:00.170492,75997,62
2026-07-01T01:19:00.170492,76007,80
2026-07-01T01:19:00.170492,76017,68
2026-07-01T01:19:00.170492,76028,70
2026-07-01T01:19:00.245345,76061,100
2026-07-01T01:19:00.245345,76072,48
2026-07-01T01:19:00.245345,76082,106
2026-07-01T01:19:00.245345,76093,50
2026-07-01T01:19:00.245345,76103,105
2026-07-01T01:19:00.317212,76135,57
2026-07-01T01:19:00.317212,76146,94
2026-07-01T01:19:00.317212,76156,64
2026-07-01T01:19:00.317212,76167,82
2026-07-01T01:19:00.317212,76177,66
2026-07-01T01:19:00.408888,76226,93
2026-07-01T01:19:00.408888,76236,65
2026-07-01T01:19:00.408888,76247,78
2026-07-01T01:19:00.408888,76257,67
2026-07-01T01:19:00.408888,76267,72
2026-07-01T01:19:00.484283,76300,78
2026-07-01T01:19:00.484283,76310,44
2026-07-01T01:19:00.484283,76321,99
2026-07-01T01:19:00.484283,76331,46
2026-07-01T01:19:00.484283,76341,104
2026-07-01T01:19:00.559449,76378,70
2026-07-01T01:19:00.559449,76388,62
2026-07-01T01:19:00.559449,76399,77
2026-07-01T01:19:00.559449,76410,51
2026-07-01T01:19:00.559449,76420,91
2026-07-01T01:19:00.636637,76452,48
2026-07-01T01:19:00.636637,76462,104
2026-07-01T01:19:00.636637,76473,52
2026-07-01T01:19:00.636637,76483,102
2026-07-01T01:19:00.636637,76493,55
2026-07-01T01:19:00.729046,76532,49
2026-07-01T01:19:00.729046,76542,103
2026-07-01T01:19:00.729046,76553,52
2026-07-01T01:19:00.729046,76563,103
2026-07-01T01:19:00.729046,76573,55
2026-07-01T01:19:00.818666,76622,104
2026-07-01T01:19:00.818666,76633,52
2026-07-01T01:19:00.818666,76643,102
2026-07-01T01:19:00.818666,76654,56
2026-07-01T01:19:00.818666,76664,100
2026-07-01T01:19:00.903019,76712,50
2026-07-01T01:19:00.903019,76724,99
2026-07-01T01:19:00.903019,76734,58
2026-07-01T01:19:00.903019,76745,94
2026-07-01T01:19:00.903019,76755,61
2026-07-01T01:19:00.985615,76796,67
2026-07-01T01:19:00.985615,76807,67
2026-07-01T01:19:00.985615,76818,74
2026-07-01T01:19:00.985615,76828,62
2026-07-01T01:19:00.985615,76838,77
2026-07-01T01:19:01.087693,76895,61
2026-07-01T01:19:01.087693,76906,82
2026-07-01T01:19:01.087693,76916,67
2026-07-01T01:19:01.087693,76926,70
2026-07-01T01:19:01.087693,76936,70
2026-07-01T01:19:01.164814,76977,72
2026-07-01T01:19:01.164814,76988,62
2026-07-01T01:19:01.164814,76998,77
2026-07-01T01:19:01.164814,77008,53
2026-07-01T01:19:01.164814,77019,87
2026-07-01T01:19:01.240983,77060,99
2026-07-01T01:19:01.240983,77070,46
2026-07-01T01:19:01.240983,77081,106
2026-07-01T01:19:01.240983,77091,50
2026-07-01T01:19:01.240983,77101,104
2026-07-01T01:19:01.321688,77141,106
2026-07-01T01:19:01.321688,77151,51
2026-07-01T01:19:01.321688,77162,103
2026-07-01T01:19:01.321688,77172,55
2026-07-01T01:19:01.321688,77182,103
2026-07-01T01:19:01.423152,77222,103
2026-07-01T01:19:01.423152,77233,56
2026-07-01T01:19:01.423152,77243,99
2026-07-01T01:19:01.423152,77253,57
2026-07-01T01:19:01.423152,77263,97
2026-07-01T01:19:01.520479,77321,106
2026-07-01T01:19:01.520479,77332,51
2026-07-01T01:19:01.520479,77342,103
2026-07-01T01:19:01.520479,77352,55
2026-07-01T01:19:01.520479,77363,101
2026-07-01T01:19:01.614945,77433,56
2026-07-01T01:19:01.614945,77443,98
2026-07-01T01:19:01.614945,77453,58
2026-07-01T01:19:01.614945,77464,96
2026-07-01T01:19:01.614945,77474,60
2026-07-01T01:19:01.692092,77515,513
2026-07-01T01:19:01.692092,77526,1024
2026-07-01T01:19:01.692092,77536,438
2026-07-01T01:19:01.692092,77546,1024
2026-07-01T01:19:01.692092,77557,1024
2026-07-01T01:19:01.781147,77596,1024
2026-07-01T01:19:01.781147,77607,1024
2026-07-01T01:19:01.781147,77617,1024
2026-07-01T01:19:01.781147,77628,1024
2026-07-01T01:19:01.781147,77638,1024
2026-07-01T01:19:01.857767,77678,1024
2026-07-01T01:19:01.857767,77689,1024
2026-07-01T01:19:01.857767,77699,1024
2026-07-01T01:19:01.857767,77710,1024
2026-07-01T01:19:01.857767,77720,1024
2026-07-01T01:19:01.926160,77750,1024
2026-07-01T01:19:01.926160,77762,1024
2026-07-01T01:19:01.926160,77772,1024
2026-07-01T01:19:01.926160,77783,1024
2026-07-01T01:19:01.926160,77793,1024
2026-07-01T01:19:02.034057,77852,1024
2026-07-01T01:19:02.034057,77862,1024
2026-07-01T01:19:02.034057,77873,1024
2026-07-01T01:19:02.034057,77883,1024
2026-07-01T01:19:02.034057,77893,972
2026-07-01T01:19:02.113817,77934,770
2026-07-01T01:19:02.113817,77945,1024
2026-07-01T01:19:02.113817,77955,97
2026-07-01T01:19:02.113817,77965,1024
2026-07-01T01:19:02.113817,77975,97
2026-07-01T01:19:02.215299,78021,1024
2026-07-01T01:19:02.215299,78032,1024
2026-07-01T01:19:02.215299,78042,1024
2026-07-01T01:19:02.215299,78052,1024
2026-07-01T01:19:02.215299,78062,1024
2026-07-01T01:19:02.295886,78105,1024
2026-07-01T01:19:02.295886,78116,97
2026-07-01T01:19:02.295886,78126,1024
2026-07-01T01:19:02.295886,78137,99
2026-07-01T01:19:02.295886,78147,1024
2026-07-01T01:19:02.373535,78186,1024
2026-07-01T01:19:02.373535,78197,99
2026-07-01T01:19:02.373535,78207,1024
2026-07-01T01:19:02.373535,78218,283
2026-07-01T01:19:02.373535,78228,1024
2026-07-01T01:19:02.452020,78264,1024
2026-07-01T01:19:02.452020,78275,233
2026-07-01T01:19:02.452020,78285,1024
2026-07-01T01:19:02.452020,78295,99
2026-07-01T01:19:02.452020,78305,1024
2026-07-01T01:19:02.548796,78355,97
2026-07-01T01:19:02.548796,78365,1024
2026-07-01T01:19:02.548796,78376,101
2026-07-01T01:19:02.548796,78386,1024
2026-07-01T01:19:02.548796,78396,102
2026-07-01T01:19:02.629173,78449,1024
2026-07-01T01:19:02.629173,78459,1024
2026-07-01T01:19:02.629173,78469,1024
2026-07-01T01:19:02.629173,78480,1024
2026-07-01T01:19:02.629173,78490,1024
2026-07-01T01:19:02.736880,78559,829
2026-07-01T01:19:02.736880,78569,1024
2026-07-01T01:19:02.736880,78579,1024
2026-07-01T01:19:02.736880,78589,1024
2026-07-01T01:19:02.736880,78600,1024
2026-07-01T01:19:02.830941,78651,1024
2026-07-01T01:19:02.830941,78662,1024
2026-07-01T01:19:02.830941,78672,1024
2026-07-01T01:19:02.830941,78682,1024
2026-07-01T01:19:02.830941,78693,924
2026-07-01T01:19:02.937506,78753,382
2026-07-01T01:19:02.937506,78763,1024
2026-07-01T01:19:02.937506,78773,361
2026-07-01T01:19:02.937506,78784,1024
2026-07-01T01:19:02.937506,78794,99
2026-07-01T01:19:03.011697,78826,1024
2026-07-01T01:19:03.011697,78836,108
2026-07-01T01:19:03.011697,78847,1024
2026-07-01T01:19:03.011697,78857,258
2026-07-01T01:19:03.011697,78867,1024
2026-07-01T01:19:03.095053,78910,1024
2026-07-01T01:19:03.095053,78920,1024
2026-07-01T01:19:03.095053,78931,1024
2026-07-01T01:19:03.095053,78941,1024
2026-07-01T01:19:03.095053,78951,1024
2026-07-01T01:19:03.181060,79006,1024
2026-07-01T01:19:03.181060,79017,1024
2026-07-01T01:19:03.181060,79027,1024
2026-07-01T01:19:03.181060,79037,1024
2026-07-01T01:19:03.181060,79048,1024
2026-07-01T01:19:03.284532,79081,1024
2026-07-01T01:19:03.284532,79092,1024
2026-07-01T01:19:03.284532,79102,1024
2026-07-01T01:19:03.284532,79112,768
2026-07-01T01:19:03.284532,79123,1024
2026-07-01T01:19:03.373786,79186,1024
2026-07-01T01:19:03.373786,79197,1024
2026-07-01T01:19:03.373786,79207,1024
2026-07-01T01:19:03.373786,79218,1024
2026-07-01T01:19:03.373786,79228,1024
2026-07-01T01:19:03.464835,79272,1024
2026-07-01T01:19:03.464835,79283,1024
2026-07-01T01:19:03.464835,79293,1024
2026-07-01T01:19:03.464835,79303,1024
2026-07-01T01:19:03.464835,79314,1024
2026-07-01T01:19:03.586494,79398,1024
2026-07-01T01:19:03.586494,79408,1024
2026-07-01T01:19:03.586494,79418,1024
2026-07-01T01:19:03.586494,79428,1024
2026-07-01T01:19:03.586494,79439,1024
2026-07-01T01:19:03.688431,79480,1024
2026-07-01T01:19:03.688431,79491,1024
2026-07-01T01:19:03.688431,79501,1024
2026-07-01T01:19:03.688431,79512,1024
2026-07-01T01:19:03.688431,79522,1024
2026-07-01T01:19:03.782161,79595,1024
2026-07-01T01:19:03.782161,79606,1024
2026-07-01T01:19:03.782161,79616,1024
2026-07-01T01:19:03.782161,79627,1024
2026-07-01T01:19:03.782161,79637,1024
2026-07-01T01:19:03.842395,79671,1024
2026-07-01T01:19:03.842395,79682,1024
2026-07-01T01:19:03.842395,79693,543
2026-07-01T01:19:03.842395,79703,1024
2026-07-01T01:19:03.842395,79713,104
2026-07-01T01:19:03.929403,79746,1024
2026-07-01T01:19:03.929403,79756,802
2026-07-01T01:19:03.929403,79766,1024
2026-07-01T01:19:03.929403,79777,1024
2026-07-01T01:19:03.929403,79787,1024
2026-07-01T01:19:04.020516,79817,1024
2026-07-01T01:19:04.020516,79828,1024
2026-07-01T01:19:04.020516,79838,1024
2026-07-01T01:19:04.020516,79849,1024
2026-07-01T01:19:04.020516,79859,1024
2026-07-01T01:19:04.110061,79929,1024
2026-07-01T01:19:04.110061,79939,1024
2026-07-01T01:19:04.110061,79950,1024
2026-07-01T01:19:04.110061,79960,1024
2026-07-01T01:19:04.110061,79970,1024
2026-07-01T01:19:04.187051,80006,1024
2026-07-01T01:19:04.187051,80016,1024
2026-07-01T01:19:04.187051,80027,1024
2026-07-01T01:19:04.187051,80037,1024
2026-07-01T01:19:04.187051,80047,1024
2026-07-01T01:19:04.293436,80082,1024
2026-07-01T01:19:04.293436,80092,1024
2026-07-01T01:19:04.293436,80102,1024
2026-07-01T01:19:04.293436,80112,1024
2026-07-01T01:19:04.293436,80123,1024
2026-07-01T01:19:04.378807,80196,1024
2026-07-01T01:19:04.378807,80207,1024
2026-07-01T01:19:04.378807,80217,1024
2026-07-01T01:19:04.378807,80227,1024
2026-07-01T01:19:04.378807,80237,1024
2026-07-01T01:19:04.495569,80285,1024
2026-07-01T01:19:04.495569,80295,1024
2026-07-01T01:19:04.495569,80306,1024
2026-07-01T01:19:04.495569,80316,1024
2026-07-01T01:19:04.495569,80326,1024
2026-07-01T01:19:04.652041,80403,1024
2026-07-01T01:19:04.652041,80413,1024
2026-07-01T01:19:04.652041,80424,1024
2026-07-01T01:19:04.652041,80434,1024
2026-07-01T01:19:04.652041,80444,1024
2026-07-01T01:19:04.735629,80548,1024
2026-07-01T01:19:04.735629,80559,1024
2026-07-01T01:19:04.735629,80570,1024
2026-07-01T01:19:04.735629,80580,1024
2026-07-01T01:19:04.735629,80590,1024
2026-07-01T01:19:04.821549,80637,1024
2026-07-01T01:19:04.821549,80649,1024
2026-07-01T01:19:04.821549,80659,1024
2026-07-01T01:19:04.821549,80670,1024
2026-07-01T01:19:04.821549,80680,1024
2026-07-01T01:19:04.899595,80724,1024
2026-07-01T01:19:04.899595,80734,1024
2026-07-01T01:19:04.899595,80745,1024
2026-07-01T01:19:04.899595,80755,1024
2026-07-01T01:19:04.899595,80765,1024
2026-07-01T01:19:04.978609,80809,1024
2026-07-01T01:19:04.978609,80819,1024
2026-07-01T01:19:04.978609,80829,1024
2026-07-01T01:19:04.978609,80840,1024
2026-07-01T01:19:04.978609,80850,785
2026-07-01T01:19:05.106678,80887,1024
2026-07-01T01:19:05.106678,80897,1024
2026-07-01T01:19:05.106678,80908,1024
2026-07-01T01:19:05.106678,80918,1024
2026-07-01T01:19:05.106678,80928,1024
2026-07-01T01:19:08.289383,81013,1024
2026-07-01T01:19:08.289383,81023,1024
2026-07-01T01:19:08.289383,81033,1024
2026-07-01T01:19:08.289383,81044,1024
2026-07-01T01:19:08.289383,81054,1024
2026-07-01T01:19:08.517989,84208,1024
2026-07-01T01:19:08.517989,84219,1024
2026-07-01T01:19:08.517989,84229,1024
2026-07-01T01:19:08.517989,84240,1024
2026-07-01T01:19:08.517989,84250,1024
2026-07-01T01:19:08.997179,84477,1024
2026-07-01T01:19:08.997179,84487,1024
2026-07-01T01:19:08.997179,84497,1024
2026-07-01T01:19:08.997179,84508,1024
2026-07-01T01:19:08.997179,84518,1024
2026-07-01T01:19:09.327023,84889,1024
2026-07-01T01:19:09.327023,84900,1024
2026-07-01T01:19:09.327023,84911,1024
2026-07-01T01:19:09.327023,84921,1024
2026-07-01T01:19:09.327023,84931,1024
2026-07-01T01:19:09.533495,85227,1024
2026-07-01T01:19:09.533495,85237,1024
2026-07-01T01:19:09.533495,85248,1024
2026-07-01T01:19:09.533495,85258,1024
2026-07-01T01:19:09.533495,85268,1024
2026-07-01T01:19:10.019429,85435,1024
2026-07-01T01:19:10.019429,85446,1024
2026-07-01T01:19:10.019429,85456,1024
2026-07-01T01:19:10.019429,85466,1024
2026-07-01T01:19:10.019429,85477,1024
2026-07-01T01:19:10.267590,85924,1024
2026-07-01T01:19:10.267590,85934,1024
2026-07-01T01:19:10.267590,85945,1024
2026-07-01T01:19:10.267590,85955,1024
2026-07-01T01:19:10.267590,85965,1024
2026-07-01T01:19:10.452124,86195,1024
2026-07-01T01:19:10.452124,86207,1024
2026-07-01T01:19:10.452124,86217,1024
2026-07-01T01:19:10.452124,86228,1024
2026-07-01T01:19:10.452124,86238,1024
2026-07-01T01:19:10.746570,86343,1024
2026-07-01T01:19:10.746570,86353,1024
2026-07-01T01:19:10.746570,86363,1024
2026-07-01T01:19:10.746570,86374,1024
2026-07-01T01:19:10.746570,86385,1024
2026-07-01T01:19:11.050005,86646,1024
2026-07-01T01:19:11.050005,86656,1024
2026-07-01T01:19:11.050005,86666,1024
2026-07-01T01:19:11.050005,86677,1024
2026-07-01T01:19:11.050005,86687,1024
2026-07-01T01:19:11.171999,86960,1024
2026-07-01T01:19:11.171999,86971,1024
2026-07-01T01:19:11.171999,86981,1024
2026-07-01T01:19:11.171999,86991,1024
2026-07-01T01:19:11.171999,87002,1024
2026-07-01T01:19:11.461399,87062,1024
2026-07-01T01:19:11.461399,87073,1024
2026-07-01T01:19:11.461399,87083,1024
2026-07-01T01:19:11.461399,87094,1024
2026-07-01T01:19:11.461399,87104,1024
2026-07-01T01:19:11.761864,87353,1024
2026-07-01T01:19:11.761864,87364,1024
2026-07-01T01:19:11.761864,87374,1024
2026-07-01T01:19:11.761864,87385,1024
2026-07-01T01:19:11.761864,87395,1024
2026-07-01T01:19:11.899732,87686,1024
2026-07-01T01:19:11.899732,87696,1016
2026-07-01T01:19:11.899732,87707,1024
2026-07-01T01:19:11.899732,87717,724
2026-07-01T01:19:11.899732,87727,1024
2026-07-01T01:19:12.195323,87790,1024
2026-07-01T01:19:12.195323,87801,1024
2026-07-01T01:19:12.195323,87811,1024
2026-07-01T01:19:12.195323,87821,1024
2026-07-01T01:19:12.195323,87832,1024
2026-07-01T01:19:12.844897,88090,1024
2026-07-01T01:19:12.844897,88101,1024
2026-07-01T01:19:12.844897,88111,1024
2026-07-01T01:19:12.844897,88121,1024
2026-07-01T01:19:12.844897,88132,1024
2026-07-01T01:19:13.096678,88739,113
2026-07-01T01:19:13.096678,88750,62
2026-07-01T01:19:13.096678,88760,110
2026-07-01T01:19:13.096678,88770,65
2026-07-01T01:19:13.096678,88781,109
2026-07-01T01:19:13.608964,88996,84
2026-07-01T01:19:13.608964,89006,62
2026-07-01T01:19:13.608964,89017,97
2026-07-01T01:19:13.608964,89027,51
2026-07-01T01:19:13.608964,89037,103
2026-07-01T01:19:14.112945,89508,57
2026-07-01T01:19:14.112945,89519,105
2026-07-01T01:19:14.112945,89529,61
2026-07-01T01:19:14.112945,89540,103
2026-07-01T01:19:14.112945,89550,63
2026-07-01T01:19:14.547121,90024,1024
2026-07-01T01:19:14.547121,90035,1024
2026-07-01T01:19:14.547121,90045,1024
2026-07-01T01:19:14.547121,90056,1024
2026-07-01T01:19:14.547121,90066,1024
2026-07-01T01:19:14.857251,90463,1024
2026-07-01T01:19:14.857251,90474,1024
2026-07-01T01:19:14.857251,90484,1024
2026-07-01T01:19:14.857251,90494,1024
2026-07-01T01:19:14.857251,90505,1024
2026-07-01T01:19:15.040562,90755,1024
2026-07-01T01:19:15.040562,90766,1024
2026-07-01T01:19:15.040562,90776,1024
2026-07-01T01:19:15.040562,90786,1024
2026-07-01T01:19:15.040562,90796,1024
2026-07-01T01:19:15.276557,90934,1024
2026-07-01T01:19:15.276557,90945,1024
2026-07-01T01:19:15.276557,90955,1024
2026-07-01T01:19:15.276557,90965,1024
2026-07-01T01:19:15.276557,90976,1024
2026-07-01T01:19:15.720806,91175,1024
2026-07-01T01:19:15.720806,91185,1024
2026-07-01T01:19:15.720806,91195,1024
2026-07-01T01:19:15.720806,91206,1024
2026-07-01T01:19:15.720806,91216,1024
2026-07-01T01:19:15.966490,91618,1024
2026-07-01T01:19:15.966490,91629,99
2026-07-01T01:19:15.966490,91639,1024
2026-07-01T01:19:15.966490,91650,276
2026-07-01T01:19:15.966490,91660,1024
2026-07-01T01:19:16.186339,91866,870
2026-07-01T01:19:16.186339,91877,1024
2026-07-01T01:19:16.186339,91887,166
2026-07-01T01:19:16.186339,91897,1024
2026-07-01T01:19:16.186339,91907,181
2026-07-01T01:19:16.476384,92090,1024
2026-07-01T01:19:16.476384,92101,1024
2026-07-01T01:19:16.476384,92111,1024
2026-07-01T01:19:16.476384,92121,1024
2026-07-01T01:19:16.476384,92131,1024
2026-07-01T01:19:17.088951,92371,1024
2026-07-01T01:19:17.088951,92382,1024
2026-07-01T01:19:17.088951,92393,1024
2026-07-01T01:19:17.088951,92403,1024
2026-07-01T01:19:17.088951,92413,1024
2026-07-01T01:19:17.376900,92986,258
2026-07-01T01:19:17.376900,92997,1024
2026-07-01T01:19:17.376900,93008,1024
2026-07-01T01:19:17.376900,93018,1024
2026-07-01T01:19:17.376900,93028,1024
2026-07-01T01:19:17.661229,93277,1024
2026-07-01T01:19:17.661229,93287,1024
2026-07-01T01:19:17.661229,93297,1024
2026-07-01T01:19:17.661229,93308,1024
2026-07-01T01:19:17.661229,93318,1024
2026-07-01T01:19:18.123642,93554,1024
2026-07-01T01:19:18.123642,93565,112
2026-07-01T01:19:18.123642,93575,1024
2026-07-01T01:19:18.123642,93586,460
2026-07-01T01:19:18.123642,93596,1024
2026-07-01T01:19:18.336990,94014,1024
2026-07-01T01:19:18.336990,94024,512
2026-07-01T01:19:18.336990,94035,1024
2026-07-01T01:19:18.336990,94045,1018
2026-07-01T01:19:18.336990,94055,1024
2026-07-01T01:19:18.834743,94236,1024
2026-07-01T01:19:18.834743,94247,1024
2026-07-01T01:19:18.834743,94257,1024
2026-07-01T01:19:18.834743,94267,1024
2026-07-01T01:19:18.834743,94278,1024
2026-07-01T01:19:19.279492,94736,1024
2026-07-01T01:19:19.279492,94746,1024
2026-07-01T01:19:19.279492,94756,1024
2026-07-01T01:19:19.279492,94767,1024
2026-07-01T01:19:19.279492,94777,1024
2026-07-01T01:19:19.646445,95172,1024
2026-07-01T01:19:19.646445,95183,1024
2026-07-01T01:19:19.646445,95193,1024
2026-07-01T01:19:19.646445,95203,1024
2026-07-01T01:19:19.646445,95214,1024
2026-07-01T01:19:19.913973,95539,1024
2026-07-01T01:19:19.913973,95551,1024
2026-07-01T01:19:19.913973,95561,1024
2026-07-01T01:19:19.913973,95572,1024
2026-07-01T01:19:19.913973,95582,1024
2026-07-01T01:19:20.075476,95836,1024
2026-07-01T01:19:20.075476,95847,1024
2026-07-01T01:19:20.075476,95857,1024
2026-07-01T01:19:20.075476,95867,1024
2026-07-01T01:19:20.075476,95877,1024
2026-07-01T01:19:20.275229,95971,1024
2026-07-01T01:19:20.275229,95981,1024
2026-07-01T01:19:20.275229,95992,1024
2026-07-01T01:19:20.275229,96002,1024
2026-07-01T01:19:20.275229,96012,1024
2026-07-01T01:19:20.673729,96186,1024
2026-07-01T01:19:20.673729,96196,1024
2026-07-01T01:19:20.673729,96207,1024
2026-07-01T01:19:20.673729,96217,1024
2026-07-01T01:19:20.673729,96227,1024
2026-07-01T01:19:20.886899,96577,1024
2026-07-01T01:19:20.886899,96587,1024
2026-07-01T01:19:20.886899,96597,1024
2026-07-01T01:19:20.886899,96608,1024
2026-07-01T01:19:20.886899,96618,1024
2026-07-01T01:19:21.709690,96789,1024
2026-07-01T01:19:21.709690,96800,1024
2026-07-01T01:19:21.709690,96810,1024
2026-07-01T01:19:21.709690,96821,1024
2026-07-01T01:19:21.709690,96831,1024
2026-07-01T01:19:22.115911,97600,1024
2026-07-01T01:19:22.115911,97610,936
2026-07-01T01:19:22.115911,97621,1024
2026-07-01T01:19:22.115911,97631,537
2026-07-01T01:19:22.115911,97641,1024
2026-07-01T01:19:22.786363,98004,1024
2026-07-01T01:19:22.786363,98015,1024
2026-07-01T01:19:22.786363,98026,1024
2026-07-01T01:19:22.786363,98036,1024
2026-07-01T01:19:22.786363,98046,1024
2026-07-01T01:19:22.943640,98705,1024
2026-07-01T01:19:22.943640,98716,1024
2026-07-01T01:19:22.943640,98726,1024
2026-07-01T01:19:22.943640,98736,1024
2026-07-01T01:19:22.943640,98747,1024
2026-07-01T01:19:23.449407,98842,1024
2026-07-01T01:19:23.449407,98852,1024
2026-07-01T01:19:23.449407,98863,1024
2026-07-01T01:19:23.449407,98873,1024
2026-07-01T01:19:23.449407,98884,1024
2026-07-01T01:19:23.519279,99339,1024
2026-07-01T01:19:23.519279,99350,337
2026-07-01T01:19:23.519279,99360,1024
2026-07-01T01:19:23.519279,99370,799
2026-07-01T01:19:23.519279,99381,1024
2026-07-01T01:19:23.656383,99421,1024
2026-07-01T01:19:23.656383,99431,1024
2026-07-01T01:19:23.656383,99442,1024
2026-07-01T01:19:23.656383,99452,1024
2026-07-01T01:19:23.656383,99463,1024
2026-07-01T01:19:23.863902,99549,777
2026-07-01T01:19:23.863902,99561,1024
2026-07-01T01:19:23.863902,99571,1024
2026-07-01T01:19:23.863902,99582,1024
2026-07-01T01:19:23.863902,99592,1024
2026-07-01T01:19:24.156916,99755,1024
2026-07-01T01:19:24.156916,99766,969
2026-07-01T01:19:24.156916,99776,1024
2026-07-01T01:19:24.156916,99786,877
2026-07-01T01:19:24.156916,99796,1024
2026-07-01T01:19:24.614896,100054,1024
2026-07-01T01:19:24.614896,100064,987
2026-07-01T01:19:24.614896,100075,1024
2026-07-01T01:19:24.614896,100085,493
2026-07-01T01:19:24.614896,100095,1024
2026-07-01T01:19:24.943228,100516,1024
2026-07-01T01:19:24.943228,100526,106
2026-07-01T01:19:24.943228,100537,1024
2026-07-01T01:19:24.943228,100548,898
2026-07-01T01:19:24.943228,100558,1024
2026-07-01T01:19:25.078950,100834,1024
2026-07-01T01:19:25.078950,100845,104
2026-07-01T01:19:25.078950,100856,1024
2026-07-01T01:19:25.078950,100866,214
2026-07-01T01:19:25.078950,100876,1024
2026-07-01T01:19:25.392527,100970,1024
2026-07-01T01:19:25.392527,100980,1024
2026-07-01T01:19:25.392527,100991,1024
2026-07-01T01:19:25.392527,101001,1024
2026-07-01T01:19:25.392527,101011,1024
2026-07-01T01:19:25.702459,101282,432
2026-07-01T01:19:25.702459,101294,1024
2026-07-01T01:19:25.702459,101305,106
2026-07-01T01:19:25.702459,101315,1024
2026-07-01T01:19:25.702459,101325,400
2026-07-01T01:19:26.283499,101592,1024
2026-07-01T01:19:26.283499,101603,103
2026-07-01T01:19:26.283499,101613,1024
2026-07-01T01:19:26.283499,101623,103
2026-07-01T01:19:26.283499,101634,1024
2026-07-01T01:19:26.429095,102191,1024
2026-07-01T01:19:26.429095,102201,106
2026-07-01T01:19:26.429095,102212,1024
2026-07-01T01:19:26.429095,102222,111
2026-07-01T01:19:26.429095,102232,1024
2026-07-01T01:19:26.747007,102317,1024
2026-07-01T01:19:26.747007,102328,1024
2026-07-01T01:19:26.747007,102338,1024
2026-07-01T01:19:26.747007,102349,1024
2026-07-01T01:19:26.747007,102359,700
2026-07-01T01:19:27.206809,102654,1024
2026-07-01T01:19:27.206809,102665,1024
2026-07-01T01:19:27.206809,102675,1024
2026-07-01T01:19:27.206809,102685,1024
2026-07-01T01:19:27.206809,102696,1024
2026-07-01T01:19:27.439075,103095,1024
2026-07-01T01:19:27.439075,103105,1024
2026-07-01T01:19:27.439075,103115,1024
2026-07-01T01:19:27.439075,103126,1024
2026-07-01T01:19:27.439075,103136,1024
2026-07-01T01:19:28.068998,103345,1024
2026-07-01T01:19:28.068998,103356,1024
2026-07-01T01:19:28.068998,103366,1024
2026-07-01T01:19:28.068998,103376,1024
2026-07-01T01:19:28.068998,103386,1024
2026-07-01T01:19:28.470196,103959,553
2026-07-01T01:19:28.470196,103970,1024
2026-07-01T01:19:28.470196,103980,1024
2026-07-01T01:19:28.470196,103990,1024
2026-07-01T01:19:28.470196,104001,1024
2026-07-01T01:19:28.779659,104382,1024
2026-07-01T01:19:28.779659,104392,1024
2026-07-01T01:19:28.779659,104403,1024
2026-07-01T01:19:28.779659,104413,1024
2026-07-01T01:19:28.779659,104423,1024
2026-07-01T01:19:29.411408,104671,1024
2026-07-01T01:19:29.411408,104681,1024
2026-07-01T01:19:29.411408,104692,1024
2026-07-01T01:19:29.411408,104702,1024
2026-07-01T01:19:29.411408,104712,1024
2026-07-01T01:19:29.796288,105301,1024
2026-07-01T01:19:29.796288,105311,102
2026-07-01T01:19:29.796288,105322,1024
2026-07-01T01:19:29.796288,105332,104
2026-07-01T01:19:29.796288,105342,1024
2026-07-01T01:19:30.199816,105688,1024
2026-07-01T01:19:30.199816,105698,1024
2026-07-01T01:19:30.199816,105709,1024
2026-07-01T01:19:30.199816,105719,1024
2026-07-01T01:19:30.199816,105730,609
2026-07-01T01:19:30.622593,106111,98
2026-07-01T01:19:30.622593,106121,1024
2026-07-01T01:19:30.622593,106131,100
2026-07-01T01:19:30.622593,106142,1024
2026-07-01T01:19:30.622593,106152,100
2026-07-01T01:19:30.843135,106551,98
2026-07-01T01:19:30.843135,106562,1024
2026-07-01T01:19:30.843135,106572,100
2026-07-01T01:19:30.843135,106583,1024
2026-07-01T01:19:30.843135,106593,176
2026-07-01T01:19:31.229110,106734,807
2026-07-01T01:19:31.229110,106744,1024
2026-07-01T01:19:31.229110,106755,1024
2026-07-01T01:19:31.229110,106765,1024
2026-07-01T01:19:31.229110,106776,1024
2026-07-01T01:19:31.541424,107132,336
2026-07-01T01:19:31.541424,107143,1024
2026-07-01T01:19:31.541424,107153,1024
2026-07-01T01:19:31.541424,107163,1024
2026-07-01T01:19:31.541424,107174,1024
2026-07-01T01:19:32.344664,107449,93
2026-07-01T01:19:32.344664,107459,1024
2026-07-01T01:19:32.344664,107470,96
2026-07-01T01:19:32.344664,107480,1024
2026-07-01T01:19:32.344664,107490,96
2026-07-01T01:19:32.567539,108291,925
2026-07-01T01:19:32.567539,108301,1024
2026-07-01T01:19:32.567539,108311,1024
2026-07-01T01:19:32.567539,108322,1024
2026-07-01T01:19:32.567539,108332,1024
2026-07-01T01:19:32.677132,108467,96
2026-07-01T01:19:32.677132,108478,1024
2026-07-01T01:19:32.677132,108488,96
2026-07-01T01:19:32.677132,108499,1024
2026-07-01T01:19:32.677132,108509,120
2026-07-01T01:19:32.878265,108590,661
2026-07-01T01:19:32.878265,108601,1024
2026-07-01T01:19:32.878265,108611,1024
2026-07-01T01:19:32.878265,108621,1024
2026-07-01T01:19:32.878265,108632,1024
2026-07-01T01:19:33.078378,108788,96
2026-07-01T01:19:33.078378,108798,1024
2026-07-01T01:19:33.078378,108808,148
2026-07-01T01:19:33.078378,108819,1024
2026-07-01T01:19:33.078378,108829,339
2026-07-01T01:19:33.595569,108982,842
2026-07-01T01:19:33.595569,108992,1024
2026-07-01T01:19:33.595569,109002,816
2026-07-01T01:19:33.595569,109012,1024
2026-07-01T01:19:33.595569,109023,512
2026-07-01T01:19:33.990125,109493,1024
2026-07-01T01:19:33.990125,109503,97
2026-07-01T01:19:33.990125,109514,1024
2026-07-01T01:19:33.990125,109524,99
2026-07-01T01:19:33.990125,109534,1024
2026-07-01T01:19:34.400465,109888,1024
2026-07-01T01:19:34.400465,109898,1024
2026-07-01T01:19:34.400465,109909,1024
2026-07-01T01:19:34.400465,109919,1024
2026-07-01T01:19:34.400465,109929,1024
2026-07-01T01:19:34.960866,110316,1024
2026-07-01T01:19:34.960866,110327,1024
2026-07-01T01:19:34.960866,110337,1024
2026-07-01T01:19:34.960866,110347,1024
2026-07-01T01:19:34.960866,110358,1024
2026-07-01T01:19:35.765784,110853,1024
2026-07-01T01:19:35.765784,110864,1024
2026-07-01T01:19:35.765784,110875,1024
2026-07-01T01:19:35.765784,110885,1024
2026-07-01T01:19:35.765784,110895,1024
2026-07-01T01:19:36.051719,111687,1024
2026-07-01T01:19:36.051719,111698,1024
2026-07-01T01:19:36.051719,111709,1024
2026-07-01T01:19:36.051719,111720,1024
2026-07-01T01:19:36.051719,111730,1024
2026-07-01T01:19:36.348056,111953,1024
2026-07-01T01:19:36.348056,111963,1024
2026-07-01T01:19:36.348056,111974,1024
2026-07-01T01:19:36.348056,111984,1024
2026-07-01T01:19:36.348056,111994,1024
2026-07-01T01:19:36.660449,112240,663
2026-07-01T01:19:36.660449,112251,1024
2026-07-01T01:19:36.660449,112261,1024
2026-07-01T01:19:36.660449,112272,1024
2026-07-01T01:19:36.660449,112282,1024
2026-07-01T01:19:37.172995,112554,1024
2026-07-01T01:19:37.172995,112565,1024
2026-07-01T01:19:37.172995,112575,1024
2026-07-01T01:19:37.172995,112585,1024
2026-07-01T01:19:37.172995,112596,1024
2026-07-01T01:19:37.572310,113075,1024
2026-07-01T01:19:37.572310,113086,1024
2026-07-01T01:19:37.572310,113096,1024
2026-07-01T01:19:37.572310,113107,1024
2026-07-01T01:19:37.572310,113117,1024
2026-07-01T01:19:37.920222,113462,1024
2026-07-01T01:19:37.920222,113473,1024
2026-07-01T01:19:37.920222,113484,1024
2026-07-01T01:19:37.920222,113494,1024
2026-07-01T01:19:37.920222,113504,1024
2026-07-01T01:19:38.081729,113810,1024
2026-07-01T01:19:38.081729,113821,1024
2026-07-01T01:19:38.081729,113831,1024
2026-07-01T01:19:38.081729,113842,1024
2026-07-01T01:19:38.081729,113852,1024
2026-07-01T01:19:38.325451,113988,1024
2026-07-01T01:19:38.325451,113998,1024
2026-07-01T01:19:38.325451,114009,1024
2026-07-01T01:19:38.325451,114019,1024
2026-07-01T01:19:38.325451,114029,1024
2026-07-01T01:19:38.533452,114220,1024
2026-07-01T01:19:38.533452,114231,1024
2026-07-01T01:19:38.533452,114241,1024
2026-07-01T01:19:38.533452,114252,1024
2026-07-01T01:19:38.533452,114262,1024
2026-07-01T01:19:39.012050,114431,1024
2026-07-01T01:19:39.012050,114442,1024
2026-07-01T01:19:39.012050,114452,1024
2026-07-01T01:19:39.012050,114463,1024
2026-07-01T01:19:39.012050,114473,1024
2026-07-01T01:19:39.523243,114901,1024
2026-07-01T01:19:39.523243,114912,1024
2026-07-01T01:19:39.523243,114922,1024
2026-07-01T01:19:39.523243,114933,1024
2026-07-01T01:19:39.523243,114943,1024
2026-07-01T01:19:39.933651,115413,1024
2026-07-01T01:19:39.933651,115424,1024
2026-07-01T01:19:39.933651,115434,1024
2026-07-01T01:19:39.933651,115444,1024
2026-07-01T01:19:39.933651,115455,1024
2026-07-01T01:19:41.100124,115833,1024
2026-07-01T01:19:41.100124,115844,1024
2026-07-01T01:19:41.100124,115854,1024
2026-07-01T01:19:41.100124,115865,1024
2026-07-01T01:19:41.100124,115875,1024
2026-07-01T01:19:41.362067,116990,412
2026-07-01T01:19:41.362067,117001,1024
2026-07-01T01:19:41.362067,117011,869
2026-07-01T01:19:41.362067,117021,1024
2026-07-01T01:19:41.362067,117032,1024
2026-07-01T01:19:41.728259,117250,398
2026-07-01T01:19:41.728259,117260,1024
2026-07-01T01:19:41.728259,117271,879
2026-07-01T01:19:41.728259,117281,1024
2026-07-01T01:19:41.728259,117292,1024
2026-07-01T01:19:42.206730,117635,1024
2026-07-01T01:19:42.206730,117645,1024
2026-07-01T01:19:42.206730,117656,1024
2026-07-01T01:19:42.206730,117666,1024
2026-07-01T01:19:42.206730,117676,1024
2026-07-01T01:19:42.420468,118102,1024
2026-07-01T01:19:42.420468,118113,1024
2026-07-01T01:19:42.420468,118123,1024
2026-07-01T01:19:42.420468,118133,1024
2026-07-01T01:19:42.420468,118144,1024
2026-07-01T01:19:42.598494,118315,1024
2026-07-01T01:19:42.598494,118325,740
2026-07-01T01:19:42.598494,118336,1024
2026-07-01T01:19:42.598494,118346,102
2026-07-01T01:19:42.598494,118357,1024
2026-07-01T01:19:43.207766,118503,917
2026-07-01T01:19:43.207766,118513,1024
2026-07-01T01:19:43.207766,118524,785
2026-07-01T01:19:43.207766,118534,1024
2026-07-01T01:19:43.207766,118544,696
2026-07-01T01:19:43.406642,119101,1024
2026-07-01T01:19:43.406642,119111,1024
2026-07-01T01:19:43.406642,119122,866
2026-07-01T01:19:43.406642,119132,1024
2026-07-01T01:19:43.406642,119142,375
2026-07-01T01:19:43.624200,119305,336
2026-07-01T01:19:43.624200,119316,1024
2026-07-01T01:19:43.624200,119326,804
2026-07-01T01:19:43.624200,119337,1024
2026-07-01T01:19:43.624200,119347,1024
2026-07-01T01:19:44.230598,119513,1024
2026-07-01T01:19:44.230598,119524,236
2026-07-01T01:19:44.230598,119534,1024
2026-07-01T01:19:44.230598,119545,288
2026-07-01T01:19:44.230598,119555,1024
2026-07-01T01:19:44.636059,120122,519
2026-07-01T01:19:44.636059,120132,1024
2026-07-01T01:19:44.636059,120142,162
2026-07-01T01:19:44.636059,120153,1024
2026-07-01T01:19:44.636059,120163,468
2026-07-01T01:19:45.254127,120560,858
2026-07-01T01:19:45.254127,120570,1024
2026-07-01T01:19:45.254127,120580,330
2026-07-01T01:19:45.254127,120590,1024
2026-07-01T01:19:45.254127,120601,306
2026-07-01T01:19:45.784103,121147,1024
2026-07-01T01:19:45.784103,121157,1024
2026-07-01T01:19:45.784103,121168,1024
2026-07-01T01:19:45.784103,121178,931
2026-07-01T01:19:45.784103,121188,1024
2026-07-01T01:19:46.245726,121673,1024
2026-07-01T01:19:46.245726,121684,1024
2026-07-01T01:19:46.245726,121695,1024
2026-07-01T01:19:46.245726,121705,1024
2026-07-01T01:19:46.245726,121715,1024
2026-07-01T01:19:46.647491,122150,1024
2026-07-01T01:19:46.647491,122161,1024
2026-07-01T01:19:46.647491,122171,1024
2026-07-01T01:19:46.647491,122182,1024
2026-07-01T01:19:46.647491,122192,1024
2026-07-01T01:19:46.904757,122540,193
2026-07-01T01:19:46.904757,122550,1024
2026-07-01T01:19:46.904757,122561,1024
2026-07-01T01:19:46.904757,122571,1024
2026-07-01T01:19:46.904757,122581,1024
2026-07-01T01:19:47.112271,122808,1024
2026-07-01T01:19:47.112271,122818,92
2026-07-01T01:19:47.112271,122829,1024
2026-07-01T01:19:47.112271,122839,212
2026-07-01T01:19:47.112271,122849,1024
2026-07-01T01:19:47.412508,123003,1024
2026-07-01T01:19:47.412508,123013,273
2026-07-01T01:19:47.412508,123024,1024
2026-07-01T01:19:47.412508,123034,91
2026-07-01T01:19:47.412508,123044,1024
2026-07-01T01:19:47.989489,123304,1024
2026-07-01T01:19:47.989489,123315,90
2026-07-01T01:19:47.989489,123326,1024
2026-07-01T01:19:47.989489,123336,90
2026-07-01T01:19:47.989489,123347,1024
2026-07-01T01:19:48.141396,123906,1024
2026-07-01T01:19:48.141396,123917,1024
2026-07-01T01:19:48.141396,123927,1024
2026-07-01T01:19:48.141396,123937,1024
2026-07-01T01:19:48.141396,123947,1024
2026-07-01T01:19:48.341739,124038,1024
2026-07-01T01:19:48.341739,124048,1024
2026-07-01T01:19:48.341739,124059,1024
2026-07-01T01:19:48.341739,124069,1024
2026-07-01T01:19:48.341739,124079,1024
2026-07-01T01:19:48.437945,124247,1024
2026-07-01T01:19:48.437945,124257,1024
2026-07-01T01:19:48.437945,124268,1024
2026-07-01T01:19:48.437945,124278,1024
2026-07-01T01:19:48.437945,124289,1024
2026-07-01T01:19:48.776612,124327,1024
2026-07-01T01:19:48.776612,124338,1024
2026-07-01T01:19:48.776612,124348,1024
2026-07-01T01:19:48.776612,124358,1024
2026-07-01T01:19:48.776612,124369,1024
2026-07-01T01:19:49.059765,124667,1024
2026-07-01T01:19:49.059765,124677,1024
2026-07-01T01:19:49.059765,124687,1024
2026-07-01T01:19:49.059765,124697,1024
2026-07-01T01:19:49.059765,124708,1024
2026-07-01T01:19:49.380668,124953,1024
2026-07-01T01:19:49.380668,124964,1024
2026-07-01T01:19:49.380668,124974,1024
2026-07-01T01:19:49.380668,124985,1024
2026-07-01T01:19:49.380668,124995,1024
2026-07-01T01:19:49.563012,125275,1024
2026-07-01T01:19:49.563012,125285,1024
2026-07-01T01:19:49.563012,125295,1024
2026-07-01T01:19:49.563012,125306,1024
2026-07-01T01:19:49.563012,125316,1024
2026-07-01T01:19:49.750059,125460,1024
2026-07-01T01:19:49.750059,125471,1024
2026-07-01T01:19:49.750059,125481,1024
2026-07-01T01:19:49.750059,125492,1024
2026-07-01T01:19:49.750059,125502,1024
2026-07-01T01:19:49.864893,125663,1024
2026-07-01T01:19:49.864893,125673,1024
2026-07-01T01:19:49.864893,125683,1024
2026-07-01T01:19:49.864893,125694,1024
2026-07-01T01:19:49.864893,125704,1024
2026-07-01T01:19:49.985784,125756,1024
2026-07-01T01:19:49.985784,125767,1024
2026-07-01T01:19:49.985784,125777,1024
2026-07-01T01:19:49.985784,125787,1024
2026-07-01T01:19:49.985784,125798,1024
2026-07-01T01:19:50.098971,125907,1024
2026-07-01T01:19:50.098971,125918,1024
2026-07-01T01:19:50.098971,125928,1024
2026-07-01T01:19:50.098971,125938,1024
2026-07-01T01:19:50.098971,125949,1024
2026-07-01T01:19:50.186750,125992,1024
2026-07-01T01:19:50.186750,126003,1024
2026-07-01T01:19:50.186750,126013,1024
2026-07-01T01:19:50.186750,126024,1024
2026-07-01T01:19:50.186750,126034,1024
2026-07-01T01:19:50.299460,126077,1024
2026-07-01T01:19:50.299460,126088,1024
2026-07-01T01:19:50.299460,126099,1024
2026-07-01T01:19:50.299460,126109,1024
2026-07-01T01:19:50.299460,126120,1024
2026-07-01T01:19:50.374347,126191,1024
2026-07-01T01:19:50.374347,126202,1024
2026-07-01T01:19:50.374347,126213,1024
2026-07-01T01:19:50.374347,126223,1024
2026-07-01T01:19:50.374347,126233,1024
2026-07-01T01:19:50.453012,126264,1024
2026-07-01T01:19:50.453012,126275,1024
2026-07-01T01:19:50.453012,126285,1024
2026-07-01T01:19:50.453012,126296,1024
2026-07-01T01:19:50.453012,126306,1024
2026-07-01T01:19:50.532517,126348,1024
2026-07-01T01:19:50.532517,126358,1024
2026-07-01T01:19:50.532517,126369,1024
2026-07-01T01:19:50.532517,126379,1024
2026-07-01T01:19:50.532517,126389,1024
2026-07-01T01:19:50.675729,126422,1024
2026-07-01T01:19:50.675729,126432,1024
2026-07-01T01:19:50.675729,126444,1024
2026-07-01T01:19:50.675729,126454,1024
2026-07-01T01:19:50.675729,126465,1024
2026-07-01T01:19:50.755494,126566,1024
2026-07-01T01:19:50.755494,126577,1024
2026-07-01T01:19:50.755494,126587,1024
2026-07-01T01:19:50.755494,126597,1024
2026-07-01T01:19:50.755494,126607,1024
2026-07-01T01:19:50.830884,126645,1024
2026-07-01T01:19:50.830884,126655,1024
2026-07-01T01:19:50.830884,126666,1024
2026-07-01T01:19:50.830884,126676,1024
2026-07-01T01:19:50.830884,126687,1024
2026-07-01T01:19:50.908092,126722,1024
2026-07-01T01:19:50.908092,126733,1024
2026-07-01T01:19:50.908092,126743,1024
2026-07-01T01:19:50.908092,126754,1024
2026-07-01T01:19:50.908092,126764,1024
2026-07-01T01:19:50.991104,126803,1024
2026-07-01T01:19:50.991104,126813,1024
2026-07-01T01:19:50.991104,126824,1024
2026-07-01T01:19:50.991104,126834,1024
2026-07-01T01:19:50.991104,126844,1024
2026-07-01T01:19:51.082357,126889,1024
2026-07-01T01:19:51.082357,126900,1024
2026-07-01T01:19:51.082357,126911,1024
2026-07-01T01:19:51.082357,126921,1024
2026-07-01T01:19:51.082357,126931,1024
2026-07-01T01:19:51.165589,126979,1024
2026-07-01T01:19:51.165589,126990,1024
2026-07-01T01:19:51.165589,127000,1024
2026-07-01T01:19:51.165589,127010,1024
2026-07-01T01:19:51.165589,127021,1024
2026-07-01T01:19:51.256949,127056,1024
2026-07-01T01:19:51.256949,127066,1024
2026-07-01T01:19:51.256949,127077,1024
2026-07-01T01:19:51.256949,127087,1024
2026-07-01T01:19:51.256949,127097,1024
2026-07-01T01:19:51.415107,127215,1024
2026-07-01T01:19:51.415107,127225,1024
2026-07-01T01:19:51.415107,127236,1024
2026-07-01T01:19:51.415107,127246,1024
2026-07-01T01:19:51.415107,127256,1024
2026-07-01T01:19:51.539560,127316,1024
2026-07-01T01:19:51.539560,127326,1024
2026-07-01T01:19:51.539560,127337,1024
2026-07-01T01:19:51.539560,127347,1024
2026-07-01T01:19:51.539560,127357,1024
2026-07-01T01:19:51.634080,127436,1024
2026-07-01T01:19:51.634080,127446,1024
2026-07-01T01:19:51.634080,127457,1024
2026-07-01T01:19:51.634080,127468,1024
2026-07-01T01:19:51.634080,127478,1024
2026-07-01T01:19:51.713030,127525,1024
2026-07-01T01:19:51.713030,127535,1024
2026-07-01T01:19:51.713030,127546,1024
2026-07-01T01:19:51.713030,127556,1024
2026-07-01T01:19:51.713030,127567,1024
2026-07-01T01:19:51.822011,127608,1024
2026-07-01T01:19:51.822011,127618,1024
2026-07-01T01:19:51.822011,127629,1024
2026-07-01T01:19:51.822011,127640,1024
2026-07-01T01:19:51.822011,127650,1024
2026-07-01T01:19:51.909079,127720,1024
2026-07-01T01:19:51.909079,127731,1024
2026-07-01T01:19:51.909079,127741,1024
2026-07-01T01:19:51.909079,127751,1024
2026-07-01T01:19:51.909079,127762,1024
2026-07-01T01:19:52.135782,127810,1024
2026-07-01T01:19:52.135782,127821,1024
2026-07-01T01:19:52.135782,127831,1024
2026-07-01T01:19:52.135782,127841,1024
2026-07-01T01:19:52.135782,127852,1024
2026-07-01T01:19:52.238513,128037,1024
2026-07-01T01:19:52.238513,128048,1024
2026-07-01T01:19:52.238513,128058,1024
2026-07-01T01:19:52.238513,128068,1024
2026-07-01T01:19:52.238513,128079,1024
2026-07-01T01:19:52.338159,128146,1024
2026-07-01T01:19:52.338159,128156,1024
2026-07-01T01:19:52.338159,128167,1024
2026-07-01T01:19:52.338159,128177,1024
2026-07-01T01:19:52.338159,128187,1024
2026-07-01T01:19:52.433834,128232,1024
2026-07-01T01:19:52.433834,128243,1024
2026-07-01T01:19:52.433834,128254,1024
2026-07-01T01:19:52.433834,128264,1024
2026-07-01T01:19:52.433834,128275,1024
2026-07-01T01:19:52.513778,128321,1024
2026-07-01T01:19:52.513778,128332,1024
2026-07-01T01:19:52.513778,128342,1024
2026-07-01T01:19:52.513778,128353,1024
2026-07-01T01:19:52.513778,128363,1024
2026-07-01T01:19:52.589309,128405,1024
2026-07-01T01:19:52.589309,128415,1024
2026-07-01T01:19:52.589309,128426,1024
2026-07-01T01:19:52.589309,128436,1024
2026-07-01T01:19:52.589309,128447,1024
2026-07-01T01:19:52.671063,128479,1024
2026-07-01T01:19:52.671063,128490,1024
2026-07-01T01:19:52.671063,128500,1024
2026-07-01T01:19:52.671063,128511,1024
2026-07-01T01:19:52.671063,128521,1024
2026-07-01T01:19:52.750736,128568,1024
2026-07-01T01:19:52.750736,128578,1024
2026-07-01T01:19:52.750736,128589,1024
2026-07-01T01:19:52.750736,128599,1024
2026-07-01T01:19:52.750736,128610,1024
2026-07-01T01:19:52.885730,128647,1024
2026-07-01T01:19:52.885730,128657,1024
2026-07-01T01:19:52.885730,128668,1024
2026-07-01T01:19:52.885730,128678,1024
2026-07-01T01:19:52.885730,128689,1024
2026-07-01T01:19:53.000879,128777,1024
2026-07-01T01:19:53.000879,128788,1024
2026-07-01T01:19:53.000879,128799,1024
2026-07-01T01:19:53.000879,128809,1024
2026-07-01T01:19:53.000879,128819,1024
2026-07-01T01:19:53.102249,128908,1024
2026-07-01T01:19:53.102249,128919,1024
2026-07-01T01:19:53.102249,128929,1024
2026-07-01T01:19:53.102249,128939,1024
2026-07-01T01:19:53.102249,128950,1024
2026-07-01T01:19:53.240637,129019,1024
2026-07-01T01:19:53.240637,129030,1024
2026-07-01T01:19:53.240637,129040,1024
2026-07-01T01:19:53.240637,129051,1024
2026-07-01T01:19:53.240637,129061,1024
2026-07-01T01:19:53.369423,129130,1024
2026-07-01T01:19:53.369423,129141,1024
2026-07-01T01:19:53.369423,129152,1024
2026-07-01T01:19:53.369423,129162,1024
2026-07-01T01:19:53.369423,129172,1024
2026-07-01T01:19:53.476704,129280,1024
2026-07-01T01:19:53.476704,129291,1024
2026-07-01T01:19:53.476704,129301,1024
2026-07-01T01:19:53.476704,129311,1024
2026-07-01T01:19:53.476704,129322,1024
2026-07-01T01:19:53.596769,129371,1024
2026-07-01T01:19:53.596769,129381,1024
2026-07-01T01:19:53.596769,129392,1024
2026-07-01T01:19:53.596769,129402,1024
2026-07-01T01:19:53.596769,129413,1024
2026-07-01T01:19:53.690173,129491,1024
2026-07-01T01:19:53.690173,129501,938
2026-07-01T01:19:53.690173,129512,1024
2026-07-01T01:19:53.690173,129523,900
2026-07-01T01:19:53.690173,129533,1024
2026-07-01T01:19:53.846723,129600,1015
2026-07-01T01:19:53.846723,129610,1024
2026-07-01T01:19:53.846723,129621,1024
2026-07-01T01:19:53.846723,129631,1024
2026-07-01T01:19:53.846723,129641,1024
2026-07-01T01:19:53.955483,129758,1024
2026-07-01T01:19:53.955483,129769,1024
2026-07-01T01:19:53.955483,129779,1024
2026-07-01T01:19:53.955483,129790,1024
2026-07-01T01:19:53.955483,129800,1024
2026-07-01T01:19:54.103595,129856,1024
2026-07-01T01:19:54.103595,129866,1024
2026-07-01T01:19:54.103595,129877,1024
2026-07-01T01:19:54.103595,129887,1024
2026-07-01T01:19:54.103595,129897,1024
2026-07-01T01:19:54.176297,129991,1024
2026-07-01T01:19:54.176297,130002,1024
2026-07-01T01:19:54.176297,130012,1024
2026-07-01T01:19:54.176297,130023,1024
2026-07-01T01:19:54.176297,130033,1024
2026-07-01T01:19:54.273633,130073,1024
2026-07-01T01:19:54.273633,130083,1024
2026-07-01T01:19:54.273633,130094,1024
2026-07-01T01:19:54.273633,130104,1024
2026-07-01T01:19:54.273633,130114,1024
2026-07-01T01:19:54.365835,130168,1024
2026-07-01T01:19:54.365835,130178,1024
2026-07-01T01:19:54.365835,130189,1024
2026-07-01T01:19:54.365835,130199,1024
2026-07-01T01:19:54.365835,130209,1024
2026-07-01T01:19:54.451821,130261,1024
2026-07-01T01:19:54.451821,130272,1024
2026-07-01T01:19:54.451821,130283,1024
2026-07-01T01:19:54.451821,130293,1024
2026-07-01T01:19:54.451821,130304,1024
2026-07-01T01:19:54.534806,130351,1024
2026-07-01T01:19:54.534806,130362,1024
2026-07-01T01:19:54.534806,130372,1024
2026-07-01T01:19:54.534806,130383,1024
2026-07-01T01:19:54.534806,130393,1024
2026-07-01T01:19:54.618692,130425,1024
2026-07-01T01:19:54.618692,130435,1024
2026-07-01T01:19:54.618692,130446,1024
2026-07-01T01:19:54.618692,130456,1024
2026-07-01T01:19:54.618692,130466,1024
2026-07-01T01:19:54.697184,130511,1024
2026-07-01T01:19:54.697184,130521,1024
2026-07-01T01:19:54.697184,130532,1024
2026-07-01T01:19:54.697184,130542,1024
2026-07-01T01:19:54.697184,130553,1024
2026-07-01T01:19:54.782269,130587,1024
2026-07-01T01:19:54.782269,130598,1024
2026-07-01T01:19:54.782269,130608,1024
2026-07-01T01:19:54.782269,130618,1024
2026-07-01T01:19:54.782269,130629,1024
2026-07-01T01:19:54.855051,130676,1024
2026-07-01T01:19:54.855051,130687,1024
2026-07-01T01:19:54.855051,130697,1024
2026-07-01T01:19:54.855051,130707,1024
2026-07-01T01:19:54.855051,130718,1024
2026-07-01T01:19:54.949834,130760,1024
2026-07-01T01:19:54.949834,130770,1024
2026-07-01T01:19:54.949834,130781,1024
2026-07-01T01:19:54.949834,130791,1024
2026-07-01T01:19:54.949834,130801,1024
2026-07-01T01:19:55.026356,130839,1024
2026-07-01T01:19:55.026356,130850,1024
2026-07-01T01:19:55.026356,130860,1024
2026-07-01T01:19:55.026356,130871,1024
2026-07-01T01:19:55.026356,130881,1024
2026-07-01T01:19:55.117100,130925,1024
2026-07-01T01:19:55.117100,130936,1024
2026-07-01T01:19:55.117100,130946,1024
2026-07-01T01:19:55.117100,130957,1024
2026-07-01T01:19:55.117100,130967,1024
2026-07-01T01:19:55.189222,131005,1024
2026-07-01T01:19:55.189222,131016,1024
2026-07-01T01:19:55.189222,131026,1024
2026-07-01T01:19:55.189222,131037,1024
2026-07-01T01:19:55.189222,131047,1024
2026-07-01T01:19:55.267267,131082,1024
2026-07-01T01:19:55.267267,131093,1024
2026-07-01T01:19:55.267267,131103,1024
2026-07-01T01:19:55.267267,131114,1024
2026-07-01T01:19:55.267267,131124,1024
2026-07-01T01:19:55.362368,131160,1024
2026-07-01T01:19:55.362368,131172,1024
2026-07-01T01:19:55.362368,131182,1024
2026-07-01T01:19:55.362368,131193,1024
2026-07-01T01:19:55.362368,131203,1024
2026-07-01T01:19:55.438803,131252,1024
2026-07-01T01:19:55.438803,131263,1024
2026-07-01T01:19:55.438803,131274,1024
2026-07-01T01:19:55.438803,131284,1024
2026-07-01T01:19:55.438803,131294,1024
2026-07-01T01:19:55.530281,131329,1024
2026-07-01T01:19:55.530281,131339,1024
2026-07-01T01:19:55.530281,131350,1024
2026-07-01T01:19:55.530281,131360,1024
2026-07-01T01:19:55.530281,131371,1024
2026-07-01T01:19:55.617052,131420,1024
2026-07-01T01:19:55.617052,131431,1024
2026-07-01T01:19:55.617052,131441,1024
2026-07-01T01:19:55.617052,131452,1024
2026-07-01T01:19:55.617052,131462,1024
2026-07-01T01:19:55.717756,131523,1024
2026-07-01T01:19:55.717756,131534,1024
2026-07-01T01:19:55.717756,131544,1024
2026-07-01T01:19:55.717756,131554,1024
2026-07-01T01:19:55.717756,131565,1024
2026-07-01T01:19:55.809314,131610,1024
2026-07-01T01:19:55.809314,131621,1024
2026-07-01T01:19:55.809314,131631,1024
2026-07-01T01:19:55.809314,131642,1024
2026-07-01T01:19:55.809314,131652,1024
2026-07-01T01:19:55.917685,131705,1024
2026-07-01T01:19:55.917685,131716,1024
2026-07-01T01:19:55.917685,131727,1024
2026-07-01T01:19:55.917685,131737,1024
2026-07-01T01:19:55.917685,131747,1024
2026-07-01T01:19:56.007803,131817,1024
2026-07-01T01:19:56.007803,131827,1024
2026-07-01T01:19:56.007803,131838,1024
2026-07-01T01:19:56.007803,131848,1024
2026-07-01T01:19:56.007803,131858,1024
2026-07-01T01:19:56.113810,131911,1024
2026-07-01T01:19:56.113810,131922,1024
2026-07-01T01:19:56.113810,131933,1024
2026-07-01T01:19:56.113810,131943,1024
2026-07-01T01:19:56.113810,131953,1024
2026-07-01T01:19:56.207927,132006,1024
2026-07-01T01:19:56.207927,132016,1024
2026-07-01T01:19:56.207927,132027,1024
2026-07-01T01:19:56.207927,132037,1024
2026-07-01T01:19:56.207927,132048,1024
2026-07-01T01:19:56.307970,132103,1024
2026-07-01T01:19:56.307970,132114,1024
2026-07-01T01:19:56.307970,132124,1024
2026-07-01T01:19:56.307970,132135,1024
2026-07-01T01:19:56.307970,132145,1024
2026-07-01T01:19:56.415954,132215,1024
2026-07-01T01:19:56.415954,132225,1024
2026-07-01T01:19:56.415954,132236,1024
2026-07-01T01:19:56.415954,132246,1024
2026-07-01T01:19:56.415954,132256,1024
2026-07-01T01:19:56.533043,132305,1024
2026-07-01T01:19:56.533043,132316,1024
2026-07-01T01:19:56.533043,132326,1024
2026-07-01T01:19:56.533043,132337,1024
2026-07-01T01:19:56.533043,132347,1024
2026-07-01T01:19:56.646875,132428,1024
2026-07-01T01:19:56.646875,132439,1024
2026-07-01T01:19:56.646875,132449,1024
2026-07-01T01:19:56.646875,132460,1024
2026-07-01T01:19:56.646875,132470,1024
2026-07-01T01:19:56.731876,132542,1024
2026-07-01T01:19:56.731876,132553,1024
2026-07-01T01:19:56.731876,132563,1024
2026-07-01T01:19:56.731876,132574,1024
2026-07-01T01:19:56.731876,132584,1024
2026-07-01T01:19:56.804155,132621,1024
2026-07-01T01:19:56.804155,132631,1024
2026-07-01T01:19:56.804155,132642,1024
2026-07-01T01:19:56.804155,132652,1024
2026-07-01T01:19:56.804155,132662,1024
2026-07-01T01:19:56.936087,132699,1024
2026-07-01T01:19:56.936087,132709,1024
2026-07-01T01:19:56.936087,132720,1024
2026-07-01T01:19:56.936087,132730,1024
2026-07-01T01:19:56.936087,132740,792
2026-07-01T01:19:57.029174,132828,75
2026-07-01T01:19:57.029174,132839,108
2026-07-01T01:19:57.029174,132849,75
2026-07-01T01:19:57.029174,132860,106
2026-07-01T01:19:57.029174,132870,75
2026-07-01T01:19:57.103091,132920,102
2026-07-01T01:19:57.103091,132930,73
2026-07-01T01:19:57.103091,132941,98
2026-07-01T01:19:57.103091,132951,76
2026-07-01T01:19:57.103091,132962,86
2026-07-01T01:19:57.204704,133022,79
2026-07-01T01:19:57.204704,133033,158
2026-07-01T01:19:57.204704,133043,70
2026-07-01T01:19:57.204704,133054,264
2026-07-01T01:19:57.204704,133064,68
2026-07-01T01:19:57.334201,133096,330
2026-07-01T01:19:57.334201,133106,56
2026-07-01T01:19:57.334201,133117,108
2026-07-01T01:19:57.334201,133127,64
2026-07-01T01:19:57.334201,133138,99
2026-07-01T01:19:57.431911,133243,272
2026-07-01T01:19:57.431911,133253,613
2026-07-01T01:19:57.431911,133264,612
2026-07-01T01:19:57.431911,133275,536
2026-07-01T01:19:57.431911,133285,717
2026-07-01T01:19:57.518549,133324,855
2026-07-01T01:19:57.518549,133334,570
2026-07-01T01:19:57.518549,133345,915
2026-07-01T01:19:57.518549,133355,560
2026-07-01T01:19:57.518549,133365,882
2026-07-01T01:19:57.599311,133415,662
2026-07-01T01:19:57.599311,133425,1024
2026-07-01T01:19:57.599311,133436,783
2026-07-01T01:19:57.599311,133446,988
2026-07-01T01:19:57.599311,133456,888
2026-07-01T01:19:57.690509,133493,726
2026-07-01T01:19:57.690509,133503,1024
2026-07-01T01:19:57.690509,133514,789
2026-07-01T01:19:57.690509,133524,1024
2026-07-01T01:19:57.690509,133534,868
2026-07-01T01:19:57.761615,133579,1024
2026-07-01T01:19:57.761615,133590,825
2026-07-01T01:19:57.761615,133600,1024
2026-07-01T01:19:57.761615,133611,759
2026-07-01T01:19:57.761615,133621,1024
2026-07-01T01:19:57.839246,133653,706
2026-07-01T01:19:57.839246,133664,1024
2026-07-01T01:19:57.839246,133674,741
2026-07-01T01:19:57.839246,133684,1024
2026-07-01T01:19:57.839246,133695,727
2026-07-01T01:19:57.961038,133728,749
2026-07-01T01:19:57.961038,133739,877
2026-07-01T01:19:57.961038,133750,615
2026-07-01T01:19:57.961038,133761,990
2026-07-01T01:19:57.961038,133771,578
2026-07-01T01:19:58.075933,133875,765
2026-07-01T01:19:58.075933,133885,977
2026-07-01T01:19:58.075933,133896,848
2026-07-01T01:19:58.075933,133906,950
2026-07-01T01:19:58.075933,133916,888
2026-07-01T01:19:58.194127,134008,807
2026-07-01T01:19:58.194127,134018,1024
2026-07-01T01:19:58.194127,134028,747
2026-07-01T01:19:58.194127,134039,1024
2026-07-01T01:19:58.194127,134049,702
2026-07-01T01:19:58.368363,134122,1024
2026-07-01T01:19:58.368363,134133,713
2026-07-01T01:19:58.368363,134143,1024
2026-07-01T01:19:58.368363,134153,805
2026-07-01T01:19:58.368363,134164,1024
2026-07-01T01:19:58.450407,134262,1024
2026-07-01T01:19:58.450407,134273,804
2026-07-01T01:19:58.450407,134283,1024
2026-07-01T01:19:58.450407,134294,833
2026-07-01T01:19:58.450407,134304,998
2026-07-01T01:19:58.530169,134342,1024
2026-07-01T01:19:58.530169,134352,522
2026-07-01T01:19:58.530169,134363,870
2026-07-01T01:19:58.530169,134373,449
2026-07-01T01:19:58.530169,134383,751
2026-07-01T01:19:58.610519,134427,700
2026-07-01T01:19:58.610519,134437,281
2026-07-01T01:19:58.610519,134448,694
2026-07-01T01:19:58.610519,134458,220
2026-07-01T01:19:58.610519,134468,711
2026-07-01T01:19:58.692201,134503,642
2026-07-01T01:19:58.692201,134513,152
2026-07-01T01:19:58.692201,134523,658
2026-07-01T01:19:58.692201,134535,96
2026-07-01T01:19:58.692201,134545,672
2026-07-01T01:19:58.785851,134582,541
2026-07-01T01:19:58.785851,134593,96
2026-07-01T01:19:58.785851,134604,578
2026-07-01T01:19:58.785851,134614,96
2026-07-01T01:19:58.785851,134624,585
2026-07-01T01:19:58.871465,134681,266
2026-07-01T01:19:58.871465,134691,234
2026-07-01T01:19:58.871465,134702,256
2026-07-01T01:19:58.871465,134712,93
2026-07-01T01:19:58.871465,134722,252
2026-07-01T01:19:58.954847,134766,550
2026-07-01T01:19:58.954847,134777,88
2026-07-01T01:19:58.954847,134787,576
2026-07-01T01:19:58.954847,134797,86
2026-07-01T01:19:58.954847,134808,532
2026-07-01T01:19:59.038322,134854,89
2026-07-01T01:19:59.038322,134865,366
2026-07-01T01:19:59.038322,134875,89
2026-07-01T01:19:59.038322,134886,243
2026-07-01T01:19:59.038322,134896,88
2026-07-01T01:19:59.120471,134930,78
2026-07-01T01:19:59.120471,134940,74
2026-07-01T01:19:59.120471,134950,84
2026-07-01T01:19:59.120471,134961,70
2026-07-01T01:19:59.120471,134972,86
2026-07-01T01:19:59.201627,135010,81
2026-07-01T01:19:59.201627,135021,70
2026-07-01T01:19:59.201627,135031,85
2026-07-01T01:19:59.201627,135042,72
2026-07-01T01:19:59.201627,135052,86
2026-07-01T01:19:59.293988,135099,75
2026-07-01T01:19:59.293988,135109,78
2026-07-01T01:19:59.293988,135120,69
2026-07-01T01:19:59.293988,135130,82
2026-07-01T01:19:59.293988,135141,70
2026-07-01T01:19:59.373355,135183,70
2026-07-01T01:19:59.373355,135194,84
2026-07-01T01:19:59.373355,135204,70
2026-07-01T01:19:59.373355,135215,81
2026-07-01T01:19:59.373355,135225,74
2026-07-01T01:19:59.475551,135271,80
2026-07-01T01:19:59.475551,135282,69
2026-07-01T01:19:59.475551,135292,81
2026-07-01T01:19:59.475551,135303,69
2026-07-01T01:19:59.475551,135313,81
2026-07-01T01:19:59.556522,135368,75
2026-07-01T01:19:59.556522,135378,72
2026-07-01T01:19:59.556522,135389,77
2026-07-01T01:19:59.556522,135399,68
2026-07-01T01:19:59.556522,135410,79
2026-07-01T01:19:59.632280,135447,74
2026-07-01T01:19:59.632280,135457,73
2026-07-01T01:19:59.632280,135467,75
2026-07-01T01:19:59.632280,135478,70
2026-07-01T01:19:59.632280,135488,75
2026-07-01T01:19:59.727759,135524,69
2026-07-01T01:19:59.727759,135535,78
2026-07-01T01:19:59.727759,135546,72
2026-07-01T01:19:59.727759,135556,75
2026-07-01T01:19:59.727759,135566,73
2026-07-01T01:19:59.831945,135618,70
2026-07-01T01:19:59.831945,135629,77
2026-07-01T01:19:59.831945,135639,67
2026-07-01T01:19:59.831945,135649,81
2026-07-01T01:19:59.831945,135660,67
2026-07-01T01:19:59.921042,135728,77
2026-07-01T01:19:59.921042,135739,67
2026-07-01T01:19:59.921042,135750,81
2026-07-01T01:19:59.921042,135760,67
2026-07-01T01:19:59.921042,135770,85
2026-07-01T01:20:00.006843,135811,84
2026-07-01T01:20:00.006843,135822,66
2026-07-01T01:20:00.006843,135833,84
2026-07-01T01:20:00.006843,135843,67
2026-07-01T01:20:00.006843,135853,81
2026-07-01T01:20:00.107872,135919,64
2026-07-01T01:20:00.107872,135929,80
2026-07-01T01:20:00.107872,135939,65
2026-07-01T01:20:00.107872,135949,81
2026-07-01T01:20:00.107872,135960,64
2026-07-01T01:20:00.185801,136001,64
2026-07-01T01:20:00.185801,136011,81
2026-07-01T01:20:00.185801,136022,64
2026-07-01T01:20:00.185801,136032,80
2026-07-01T01:20:00.185801,136043,65
2026-07-01T01:20:00.289398,136090,79
2026-07-01T01:20:00.289398,136100,63
2026-07-01T01:20:00.289398,136111,79
2026-07-01T01:20:00.289398,136121,64
2026-07-01T01:20:00.289398,136131,80
2026-07-01T01:20:00.370273,136189,78
2026-07-01T01:20:00.370273,136199,61
2026-07-01T01:20:00.370273,136210,79
2026-07-01T01:20:00.370273,136220,62
2026-07-01T01:20:00.370273,136231,79
2026-07-01T01:20:00.478093,136272,79
2026-07-01T01:20:00.478093,136283,63
2026-07-01T01:20:00.478093,136293,77
2026-07-01T01:20:00.478093,136303,64
2026-07-01T01:20:00.478093,136314,74
2026-07-01T01:20:00.561356,136386,68
2026-07-01T01:20:00.561356,136397,56
2026-07-01T01:20:00.561356,136407,80
2026-07-01T01:20:00.561356,136418,55
2026-07-01T01:20:00.561356,136428,85
2026-07-01T01:20:00.653225,136465,67
2026-07-01T01:20:00.653225,136476,65
2026-07-01T01:20:00.653225,136487,75
2026-07-01T01:20:00.653225,136497,58
2026-07-01T01:20:00.653225,136507,77
2026-07-01T01:20:00.723817,136541,66
2026-07-01T01:20:00.723817,136552,70
2026-07-01T01:20:00.723817,136562,68
2026-07-01T01:20:00.723817,136573,67
2026-07-01T01:20:00.723817,136583,68
2026-07-01T01:20:00.840978,136624,69
2026-07-01T01:20:00.840978,136635,65
2026-07-01T01:20:00.840978,136645,69
2026-07-01T01:20:00.840978,136655,65
2026-07-01T01:20:00.840978,136666,70
2026-07-01T01:20:00.919685,136735,66
2026-07-01T01:20:00.919685,136746,70
2026-07-01T01:20:00.919685,136756,64
2026-07-01T01:20:00.919685,136766,73
2026-07-01T01:20:00.919685,136777,65
2026-07-01T01:20:01.047865,136846,72
2026-07-01T01:20:01.047865,136857,66
2026-07-01T01:20:01.047865,136867,74
2026-07-01T01:20:01.047865,136877,66
2026-07-01T01:20:01.047865,136888,73
2026-07-01T01:20:01.128828,136936,65
2026-07-01T01:20:01.128828,136947,74
2026-07-01T01:20:01.128828,136958,67
2026-07-01T01:20:01.128828,136968,73
2026-07-01T01:20:01.128828,136978,67
2026-07-01T01:20:01.256149,137042,68
2026-07-01T01:20:01.256149,137053,66
2026-07-01T01:20:01.256149,137063,69
2026-07-01T01:20:01.256149,137073,66
2026-07-01T01:20:01.256149,137083,69
2026-07-01T01:20:01.336873,137154,65
2026-07-01T01:20:01.336873,137164,68
2026-07-01T01:20:01.336873,137175,64
2026-07-01T01:20:01.336873,137185,70
2026-07-01T01:20:01.336873,137196,65
2026-07-01T01:20:01.427840,137236,65
2026-07-01T01:20:01.427840,137246,70
2026-07-01T01:20:01.427840,137257,66
2026-07-01T01:20:01.427840,137267,70
2026-07-01T01:20:01.427840,137277,67
2026-07-01T01:20:01.506058,137319,67
2026-07-01T01:20:01.506058,137329,70
2026-07-01T01:20:01.506058,137340,67
2026-07-01T01:20:01.506058,137350,69
2026-07-01T01:20:01.506058,137360,68
2026-07-01T01:20:01.601839,137409,69
2026-07-01T01:20:01.601839,137420,67
2026-07-01T01:20:01.601839,137430,69
2026-07-01T01:20:01.601839,137440,68
2026-07-01T01:20:01.601839,137451,67
2026-07-01T01:20:01.684850,137494,65
2026-07-01T01:20:01.684850,137504,70
2026-07-01T01:20:01.684850,137515,64
2026-07-01T01:20:01.684850,137525,72
2026-07-01T01:20:01.684850,137535,66
2026-07-01T01:20:01.801741,137574,65
2026-07-01T01:20:01.801741,137584,70
2026-07-01T01:20:01.801741,137595,65
2026-07-01T01:20:01.801741,137606,70
2026-07-01T01:20:01.801741,137616,67
2026-07-01T01:20:01.910560,137696,66
2026-07-01T01:20:01.910560,137707,70
2026-07-01T01:20:01.910560,137717,67
2026-07-01T01:20:01.910560,137728,70
2026-07-01T01:20:01.910560,137738,67
2026-07-01T01:20:02.033189,137807,70
2026-07-01T01:20:02.033189,137818,67
2026-07-01T01:20:02.033189,137828,69
2026-07-01T01:20:02.033189,137839,68
2026-07-01T01:20:02.033189,137849,69
2026-07-01T01:20:02.123462,137937,67
2026-07-01T01:20:02.123462,137948,69
2026-07-01T01:20:02.123462,137958,67
2026-07-01T01:20:02.123462,137969,68
2026-07-01T01:20:02.123462,137979,68
2026-07-01T01:20:02.218556,138021,68
2026-07-01T01:20:02.218556,138032,67
2026-07-01T01:20:02.218556,138042,69
2026-07-01T01:20:02.218556,138053,65
2026-07-01T01:20:02.218556,138063,70
2026-07-01T01:20:02.361435,138108,69
2026-07-01T01:20:02.361435,138118,68
2026-07-01T01:20:02.361435,138129,67
2026-07-01T01:20:02.361435,138139,68
2026-07-01T01:20:02.361435,138150,66
2026-07-01T01:20:02.451801,138252,65
2026-07-01T01:20:02.451801,138262,69
2026-07-01T01:20:02.451801,138273,64
2026-07-01T01:20:02.451801,138283,69
2026-07-01T01:20:02.451801,138294,65
2026-07-01T01:20:02.556584,138342,67
2026-07-01T01:20:02.556584,138353,62
2026-07-01T01:20:02.556584,138363,69
2026-07-01T01:20:02.556584,138373,64
2026-07-01T01:20:02.556584,138383,69
2026-07-01T01:20:02.740589,138541,67
2026-07-01T01:20:02.740589,138551,64
2026-07-01T01:20:02.740589,138562,69
2026-07-01T01:20:02.740589,138572,63
2026-07-01T01:20:02.740589,138582,69
2026-07-01T01:20:02.822987,138637,66
2026-07-01T01:20:02.822987,138648,67
2026-07-01T01:20:02.822987,138658,67
2026-07-01T01:20:02.822987,138669,65
2026-07-01T01:20:02.822987,138679,67
2026-07-01T01:20:02.903765,138712,65
2026-07-01T01:20:02.903765,138723,69
2026-07-01T01:20:02.903765,138734,65
2026-07-01T01:20:02.903765,138744,69
2026-07-01T01:20:02.903765,138754,66
2026-07-01T01:20:02.981906,138792,65
2026-07-01T01:20:02.981906,138803,69
2026-07-01T01:20:02.981906,138813,66
2026-07-01T01:20:02.981906,138824,69
2026-07-01T01:20:02.981906,138834,67
2026-07-01T01:20:03.080154,138887,67
2026-07-01T01:20:03.080154,138897,67
2026-07-01T01:20:03.080154,138908,66
2026-07-01T01:20:03.080154,138918,67
2026-07-01T01:20:03.080154,138928,65
2026-07-01T01:20:03.179654,138971,64
2026-07-01T01:20:03.179654,138981,70
2026-07-01T01:20:03.179654,138992,65
2026-07-01T01:20:03.179654,139002,70
2026-07-01T01:20:03.179654,139013,66
2026-07-01T01:20:03.264320,139068,65
2026-07-01T01:20:03.264320,139079,68
2026-07-01T01:20:03.264320,139089,66
2026-07-01T01:20:03.264320,139100,68
2026-07-01T01:20:03.264320,139110,66
2026-07-01T01:20:03.350399,139159,68
2026-07-01T01:20:03.350399,139170,65
2026-07-01T01:20:03.350399,139181,69
2026-07-01T01:20:03.350399,139191,65
2026-07-01T01:20:03.350399,139201,70
2026-07-01T01:20:03.435874,139239,68
2026-07-01T01:20:03.435874,139250,65
2026-07-01T01:20:03.435874,139260,70
2026-07-01T01:20:03.435874,139271,65
2026-07-01T01:20:03.435874,139281,70
2026-07-01T01:20:03.531858,139324,68
2026-07-01T01:20:03.531858,139335,67
2026-07-01T01:20:03.531858,139347,65
2026-07-01T01:20:03.531858,139357,67
2026-07-01T01:20:03.531858,139368,65
2026-07-01T01:20:03.609675,139419,68
2026-07-01T01:20:03.609675,139430,64
2026-07-01T01:20:03.609675,139441,69
2026-07-01T01:20:03.609675,139451,66
2026-07-01T01:20:03.609675,139461,69
2026-07-01T01:20:03.694595,139500,69
2026-07-01T01:20:03.694595,139510,63
2026-07-01T01:20:03.694595,139520,69
2026-07-01T01:20:03.694595,139531,65
2026-07-01T01:20:03.694595,139541,69
2026-07-01T01:20:03.789445,139585,67
2026-07-01T01:20:03.789445,139595,67
2026-07-01T01:20:03.789445,139606,66
2026-07-01T01:20:03.789445,139616,67
2026-07-01T01:20:03.789445,139626,65
2026-07-01T01:20:04.707699,139683,68
2026-07-01T01:20:04.707699,139694,66
2026-07-01T01:20:04.707699,139704,68
2026-07-01T01:20:04.707699,139714,66
2026-07-01T01:20:04.707699,139725,67
2026-07-01T01:20:05.766706,140611,67
2026-07-01T01:20:05.766706,140622,69
2026-07-01T01:20:05.766706,140632,68
2026-07-01T01:20:05.766706,140642,68
2026-07-01T01:20:05.766706,140653,68
2026-07-01T01:20:06.176147,141671,65
2026-07-01T01:20:06.176147,141682,64
2026-07-01T01:20:06.176147,141692,356
2026-07-01T01:20:06.176147,141702,65
2026-07-01T01:20:06.176147,141713,473
2026-07-01T01:20:06.590103,142083,64
2026-07-01T01:20:06.590103,142094,288
2026-07-01T01:20:06.590103,142104,61
2026-07-01T01:20:06.590103,142114,458
2026-07-01T01:20:06.590103,142125,62
2026-07-01T01:20:06.782628,142496,74
2026-07-01T01:20:06.782628,142507,382
2026-07-01T01:20:06.782628,142517,74
2026-07-01T01:20:06.782628,142527,549
2026-07-01T01:20:06.782628,142538,74
2026-07-01T01:20:07.263017,142682,734
2026-07-01T01:20:07.263017,142692,568
2026-07-01T01:20:07.263017,142703,809
2026-07-01T01:20:07.263017,142713,528
2026-07-01T01:20:07.263017,142723,920
2026-07-01T01:20:07.521750,143154,270
2026-07-01T01:20:07.521750,143164,834
2026-07-01T01:20:07.521750,143174,214
2026-07-01T01:20:07.521750,143185,823
2026-07-01T01:20:07.521750,143195,79
2026-07-01T01:20:08.049264,143416,329
2026-07-01T01:20:08.049264,143427,675
2026-07-01T01:20:08.049264,143437,418
2026-07-01T01:20:08.049264,143448,651
2026-07-01T01:20:08.049264,143458,594
2026-07-01T01:20:09.691853,144244,465
2026-07-01T01:20:09.691853,144254,75
2026-07-01T01:20:09.691853,144265,504
2026-07-01T01:20:09.691853,144276,72
2026-07-01T01:20:09.691853,144286,616
2026-07-01T01:20:10.255048,145637,64
2026-07-01T01:20:10.255048,145647,303
2026-07-01T01:20:10.255048,145658,65
2026-07-01T01:20:10.255048,145668,76
2026-07-01T01:20:10.255048,145678,67
2026-07-01T01:20:10.522141,146168,72
2026-07-01T01:20:10.522141,146178,66
2026-07-01T01:20:10.522141,146189,72
2026-07-01T01:20:10.522141,146199,148
2026-07-01T01:20:10.522141,146209,70
2026-07-01T01:20:10.827095,146423,489
2026-07-01T01:20:10.827095,146434,65
2026-07-01T01:20:10.827095,146444,583
2026-07-01T01:20:10.827095,146454,65
2026-07-01T01:20:10.827095,146464,559
2026-07-01T01:20:11.072956,146736,65
2026-07-01T01:20:11.072956,146746,72
2026-07-01T01:20:11.072956,146757,94
2026-07-01T01:20:11.072956,146767,70
2026-07-01T01:20:11.072956,146777,126
2026-07-01T01:20:11.275398,146979,350
2026-07-01T01:20:11.275398,146990,67
2026-07-01T01:20:11.275398,147000,387
2026-07-01T01:20:11.275398,147010,66
2026-07-01T01:20:11.275398,147021,436
2026-07-01T01:20:11.874330,147168,69
2026-07-01T01:20:11.874330,147179,171
2026-07-01T01:20:11.874330,147189,67
2026-07-01T01:20:11.874330,147199,360
2026-07-01T01:20:11.874330,147209,67
2026-07-01T01:20:12.183879,147794,64
2026-07-01T01:20:12.183879,147804,73
2026-07-01T01:20:12.183879,147814,65
2026-07-01T01:20:12.183879,147825,72
2026-07-01T01:20:12.183879,147835,65
2026-07-01T01:20:12.592366,148084,72
2026-07-01T01:20:12.592366,148094,65
2026-07-01T01:20:12.592366,148105,72
2026-07-01T01:20:12.592366,148115,72
2026-07-01T01:20:12.592366,148125,72
2026-07-01T01:20:12.899652,148510,60
2026-07-01T01:20:12.899652,148521,70
2026-07-01T01:20:12.899652,148532,61
2026-07-01T01:20:12.899652,148542,70
2026-07-01T01:20:12.899652,148552,62
2026-07-01T01:20:13.123192,148790,60
2026-07-01T01:20:13.123192,148800,228
2026-07-01T01:20:13.123192,148810,62
2026-07-01T01:20:13.123192,148821,72
2026-07-01T01:20:13.123192,148831,62
2026-07-01T01:20:13.429787,149012,64
2026-07-01T01:20:13.429787,149022,69
2026-07-01T01:20:13.429787,149032,64
2026-07-01T01:20:13.429787,149043,69
2026-07-01T01:20:13.429787,149053,65
2026-07-01T01:20:13.728937,149320,69
2026-07-01T01:20:13.728937,149331,64
2026-07-01T01:20:13.728937,149342,69
2026-07-01T01:20:13.728937,149352,65
2026-07-01T01:20:13.728937,149362,68
2026-07-01T01:20:13.931042,149622,69
2026-07-01T01:20:13.931042,149632,65
2026-07-01T01:20:13.931042,149643,68
2026-07-01T01:20:13.931042,149653,65
2026-07-01T01:20:13.931042,149663,67
2026-07-01T01:20:14.138445,149825,64
2026-07-01T01:20:14.138445,149835,212
2026-07-01T01:20:14.138445,149846,64
2026-07-01T01:20:14.138445,149856,286
2026-07-01T01:20:14.138445,149867,64
2026-07-01T01:20:14.753443,150032,64
2026-07-01T01:20:14.753443,150043,64
2026-07-01T01:20:14.753443,150054,118
2026-07-01T01:20:14.753443,150064,63
2026-07-01T01:20:14.753443,150075,193
2026-07-01T01:20:14.894741,150649,64
2026-07-01T01:20:14.894741,150660,68
2026-07-01T01:20:14.894741,150670,64
2026-07-01T01:20:14.894741,150680,67
2026-07-01T01:20:14.894741,150691,64
2026-07-01T01:20:15.157034,150804,64
2026-07-01T01:20:15.157034,150815,88
2026-07-01T01:20:15.157034,150825,61
2026-07-01T01:20:15.157034,150835,68
2026-07-01T01:20:15.157034,150846,62
2026-07-01T01:20:15.256592,151048,64
2026-07-01T01:20:15.256592,151059,68
2026-07-01T01:20:15.256592,151069,64
2026-07-01T01:20:15.256592,151080,67
2026-07-01T01:20:15.256592,151090,65
2026-07-01T01:20:15.363071,151146,62
2026-07-01T01:20:15.363071,151156,69
2026-07-01T01:20:15.363071,151167,63
2026-07-01T01:20:15.363071,151177,68
2026-07-01T01:20:15.363071,151188,64
2026-07-01T01:20:15.468840,151252,65
2026-07-01T01:20:15.468840,151263,63
2026-07-01T01:20:15.468840,151274,165
2026-07-01T01:20:15.468840,151284,61
2026-07-01T01:20:15.468840,151294,81
2026-07-01T01:20:15.865443,151368,64
2026-07-01T01:20:15.865443,151379,67
2026-07-01T01:20:15.865443,151390,64
2026-07-01T01:20:15.865443,151400,66
2026-07-01T01:20:15.865443,151410,65
2026-07-01T01:20:15.980459,151765,62
2026-07-01T01:20:15.980459,151776,68
2026-07-01T01:20:15.980459,151786,64
2026-07-01T01:20:15.980459,151796,68
2026-07-01T01:20:15.980459,151807,64
2026-07-01T01:20:16.381009,151873,70
2026-07-01T01:20:16.381009,151883,60
2026-07-01T01:20:16.381009,151894,69
2026-07-01T01:20:16.381009,151904,62
2026-07-01T01:20:16.381009,151914,69
2026-07-01T01:20:16.575197,152298,65
2026-07-01T01:20:16.575197,152309,62
2026-07-01T01:20:16.575197,152319,62
2026-07-01T01:20:16.575197,152330,64
2026-07-01T01:20:16.575197,152340,62
2026-07-01T01:20:17.015029,152485,63
2026-07-01T01:20:17.015029,152496,67
2026-07-01T01:20:17.015029,152506,64
2026-07-01T01:20:17.015029,152517,66
2026-07-01T01:20:17.015029,152527,64
2026-07-01T01:20:17.424809,152935,67
2026-07-01T01:20:17.424809,152946,64
2026-07-01T01:20:17.424809,152956,67
2026-07-01T01:20:17.424809,152966,64
2026-07-01T01:20:17.424809,152977,66
2026-07-01T01:20:17.814029,153320,63
2026-07-01T01:20:17.814029,153330,68
2026-07-01T01:20:17.814029,153341,61
2026-07-01T01:20:17.814029,153351,69
2026-07-01T01:20:17.814029,153361,62
2026-07-01T01:20:18.027423,153709,66
2026-07-01T01:20:18.027423,153719,60
2026-07-01T01:20:18.027423,153731,69
2026-07-01T01:20:18.027423,153741,62
2026-07-01T01:20:18.027423,153751,68
2026-07-01T01:20:18.303258,153923,64
2026-07-01T01:20:18.303258,153933,67
2026-07-01T01:20:18.303258,153944,64
2026-07-01T01:20:18.303258,153954,66
2026-07-01T01:20:18.303258,153965,64
2026-07-01T01:20:18.795063,154204,64
2026-07-01T01:20:18.795063,154216,63
2026-07-01T01:20:18.795063,154226,65
2026-07-01T01:20:18.795063,154236,62
2026-07-01T01:20:18.795063,154246,65
2026-07-01T01:20:18.879876,154694,64
2026-07-01T01:20:18.879876,154704,64
2026-07-01T01:20:18.879876,154714,63
2026-07-01T01:20:18.879876,154725,65
2026-07-01T01:20:18.879876,154736,62
2026-07-01T01:20:19.735352,154774,64
2026-07-01T01:20:19.735352,154785,64
2026-07-01T01:20:19.735352,154795,62
2026-07-01T01:20:19.735352,154805,65
2026-07-01T01:20:19.735352,154816,63
2026-07-01T01:20:20.073271,155627,68
2026-07-01T01:20:20.073271,155637,63
2026-07-01T01:20:20.073271,155648,68
2026-07-01T01:20:20.073271,155659,64
2026-07-01T01:20:20.073271,155669,67
2026-07-01T01:20:20.763062,155993,62
2026-07-01T01:20:20.763062,156004,65
2026-07-01T01:20:20.763062,156014,61
2026-07-01T01:20:20.763062,156024,68
2026-07-01T01:20:20.763062,156035,60
2026-07-01T01:20:22.131040,156672,62
2026-07-01T01:20:22.131040,156682,65
2026-07-01T01:20:22.131040,156693,61
2026-07-01T01:20:22.131040,156703,68
2026-07-01T01:20:22.131040,156713,60
2026-07-01T01:20:22.219695,158021,66
2026-07-01T01:20:22.219695,158031,60
2026-07-01T01:20:22.219695,158042,67
2026-07-01T01:20:22.219695,158053,60
2026-07-01T01:20:22.219695,158063,67
2026-07-01T01:20:22.309788,158112,58
2026-07-01T01:20:22.309788,158123,67
2026-07-01T01:20:22.309788,158133,60
2026-07-01T01:20:22.309788,158143,68
2026-07-01T01:20:22.309788,158154,58
2026-07-01T01:20:22.390429,158208,61
2026-07-01T01:20:22.390429,158218,61
2026-07-01T01:20:22.390429,158229,60
2026-07-01T01:20:22.390429,158239,64
2026-07-01T01:20:22.390429,158250,57
2026-07-01T01:20:22.492055,158285,67
2026-07-01T01:20:22.492055,158297,60
2026-07-01T01:20:22.492055,158308,61
2026-07-01T01:20:22.492055,158318,61
2026-07-01T01:20:22.492055,158328,61
2026-07-01T01:20:22.576171,158382,68
2026-07-01T01:20:22.576171,158392,57
2026-07-01T01:20:22.576171,158403,68
2026-07-01T01:20:22.576171,158413,57
2026-07-01T01:20:22.576171,158424,68
2026-07-01T01:20:22.669397,158469,57
2026-07-01T01:20:22.669397,158480,65
2026-07-01T01:20:22.669397,158490,57
2026-07-01T01:20:22.669397,158501,68
2026-07-01T01:20:22.669397,158511,57
2026-07-01T01:20:22.781892,158558,61
2026-07-01T01:20:22.781892,158569,56
2026-07-01T01:20:22.781892,158580,67
2026-07-01T01:20:22.781892,158590,57
2026-07-01T01:20:22.781892,158600,68
2026-07-01T01:20:22.857812,158671,57
2026-07-01T01:20:22.857812,158682,67
2026-07-01T01:20:22.857812,158692,57
2026-07-01T01:20:22.857812,158703,67
2026-07-01T01:20:22.857812,158713,57
2026-07-01T01:20:22.942560,158758,61
2026-07-01T01:20:22.942560,158768,58
2026-07-01T01:20:22.942560,158779,64
2026-07-01T01:20:22.942560,158789,57
2026-07-01T01:20:22.942560,158799,66
2026-07-01T01:20:23.031554,158841,67
2026-07-01T01:20:23.031554,158851,58
2026-07-01T01:20:23.031554,158861,67
2026-07-01T01:20:23.031554,158872,58
2026-07-01T01:20:23.031554,158882,66
2026-07-01T01:20:23.111579,158926,60
2026-07-01T01:20:23.111579,158936,61
2026-07-01T01:20:23.111579,158947,60
2026-07-01T01:20:23.111579,158957,61
2026-07-01T01:20:23.111579,158967,58
2026-07-01T01:20:23.210740,159026,60
2026-07-01T01:20:23.210740,159037,61
2026-07-01T01:20:23.210740,159047,58
2026-07-01T01:20:23.210740,159057,64
2026-07-01T01:20:23.210740,159068,56
2026-07-01T01:20:23.324002,159124,65
2026-07-01T01:20:23.324002,159134,60
2026-07-01T01:20:23.324002,159144,62
2026-07-01T01:20:23.324002,159155,61
2026-07-01T01:20:23.324002,159165,61
2026-07-01T01:20:23.435388,159226,60
2026-07-01T01:20:23.435388,159237,63
2026-07-01T01:20:23.435388,159247,57
2026-07-01T01:20:23.435388,159257,67
2026-07-01T01:20:23.435388,159268,55
2026-07-01T01:20:23.518257,159331,58
2026-07-01T01:20:23.518257,159341,68
2026-07-01T01:20:23.518257,159351,58
2026-07-01T01:20:23.518257,159362,67
2026-07-01T01:20:23.518257,159372,60
2026-07-01T01:20:23.623315,159423,67
2026-07-01T01:20:23.623315,159433,60
2026-07-01T01:20:23.623315,159443,64
2026-07-01T01:20:23.623315,159454,60
2026-07-01T01:20:23.623315,159464,62
2026-07-01T01:20:23.733977,159535,61
2026-07-01T01:20:23.733977,159546,58
2026-07-01T01:20:23.733977,159556,62
2026-07-01T01:20:23.733977,159566,56
2026-07-01T01:20:23.733977,159576,65
2026-07-01T01:20:23.829514,159633,60
2026-07-01T01:20:23.829514,159644,60
2026-07-01T01:20:23.829514,159655,61
2026-07-01T01:20:23.829514,159665,58
2026-07-01T01:20:23.829514,159675,61
2026-07-01T01:20:23.938787,159717,67
2026-07-01T01:20:23.938787,159727,56
2026-07-01T01:20:23.938787,159738,68
2026-07-01T01:20:23.938787,159748,57
2026-07-01T01:20:23.938787,159759,68
2026-07-01T01:20:24.041494,159858,69
2026-07-01T01:20:24.041494,159869,57
2026-07-01T01:20:24.041494,159879,68
2026-07-01T01:20:24.041494,159889,58
2026-07-01T01:20:24.041494,159899,68
2026-07-01T01:20:24.130495,159942,67
2026-07-01T01:20:24.130495,159952,60
2026-07-01T01:20:24.130495,159962,62
2026-07-01T01:20:24.130495,159973,61
2026-07-01T01:20:24.130495,159983,61
2026-07-01T01:20:24.230976,160019,69
2026-07-01T01:20:24.230976,160030,58
2026-07-01T01:20:24.230976,160041,67
2026-07-01T01:20:24.230976,160051,58
2026-07-01T01:20:24.230976,160061,66
2026-07-01T01:20:24.309885,160121,67
2026-07-01T01:20:24.309885,160131,60
2026-07-01T01:20:24.309885,160141,65
2026-07-01T01:20:24.309885,160152,60
2026-07-01T01:20:24.309885,160162,62
2026-07-01T01:20:24.396607,160198,69
2026-07-01T01:20:24.396607,160209,57
2026-07-01T01:20:24.396607,160219,68
2026-07-01T01:20:24.396607,160230,58
2026-07-01T01:20:24.396607,160240,67
2026-07-01T01:20:24.480708,160286,56
2026-07-01T01:20:24.480708,160296,69
2026-07-01T01:20:24.480708,160307,57
2026-07-01T01:20:24.480708,160318,69
2026-07-01T01:20:24.480708,160328,58
2026-07-01T01:20:24.565133,160375,66
2026-07-01T01:20:24.565133,160385,55
2026-07-01T01:20:24.565133,160396,70
2026-07-01T01:20:24.565133,160406,56
2026-07-01T01:20:24.565133,160417,69
2026-07-01T01:20:24.642505,160458,69
2026-07-01T01:20:24.642505,160469,58
2026-07-01T01:20:24.642505,160479,68
2026-07-01T01:20:24.642505,160490,60
2026-07-01T01:20:24.642505,160500,67
2026-07-01T01:20:24.726706,160540,67
2026-07-01T01:20:24.726706,160550,61
2026-07-01T01:20:24.726706,160561,62
2026-07-01T01:20:24.726706,160571,62
2026-07-01T01:20:24.726706,160581,61
2026-07-01T01:20:24.828623,160621,62
2026-07-01T01:20:24.828623,160631,62
2026-07-01T01:20:24.828623,160642,60
2026-07-01T01:20:24.828623,160652,63
2026-07-01T01:20:24.828623,160662,60
2026-07-01T01:20:24.905249,160718,69
2026-07-01T01:20:24.905249,160728,60
2026-07-01T01:20:24.905249,160739,68
2026-07-01T01:20:24.905249,160749,61
2026-07-01T01:20:24.905249,160759,67
2026-07-01T01:20:24.986280,160801,61
2026-07-01T01:20:24.986280,160812,63
2026-07-01T01:20:24.986280,160822,60
2026-07-01T01:20:24.986280,160833,65
2026-07-01T01:20:24.986280,160843,58
2026-07-01T01:20:25.057951,160876,69
2026-07-01T01:20:25.057951,160887,60
2026-07-01T01:20:25.057951,160897,69
2026-07-01T01:20:25.057951,160907,60
2026-07-01T01:20:25.057951,160917,69
2026-07-01T01:20:25.168202,160946,60
2026-07-01T01:20:25.168202,160958,68
2026-07-01T01:20:25.168202,160968,61
2026-07-01T01:20:25.168202,160979,67
2026-07-01T01:20:25.168202,160989,62
2026-07-01T01:20:25.273318,161066,60
2026-07-01T01:20:25.273318,161077,68
2026-07-01T01:20:25.273318,161087,61
2026-07-01T01:20:25.273318,161098,67
2026-07-01T01:20:25.273318,161108,62
2026-07-01T01:20:25.358253,161166,61
2026-07-01T01:20:25.358253,161177,68
2026-07-01T01:20:25.358253,161187,62
2026-07-01T01:20:25.358253,161197,68
2026-07-01T01:20:25.358253,161208,62
2026-07-01T01:20:25.451366,161248,62
2026-07-01T01:20:25.451366,161259,65
2026-07-01T01:20:25.451366,161269,63
2026-07-01T01:20:25.451366,161280,62
2026-07-01T01:20:25.451366,161290,64
2026-07-01T01:20:25.531142,161344,60
2026-07-01T01:20:25.531142,161355,69
2026-07-01T01:20:25.531142,161366,61
2026-07-01T01:20:25.531142,161376,68
2026-07-01T01:20:25.531142,161386,61
2026-07-01T01:20:25.616274,161424,58
2026-07-01T01:20:25.616274,161434,69
2026-07-01T01:20:25.616274,161445,60
2026-07-01T01:20:25.616274,161455,69
2026-07-01T01:20:25.616274,161465,61
2026-07-01T01:20:25.717246,161505,60
2026-07-01T01:20:25.717246,161516,69
2026-07-01T01:20:25.717246,161526,61
2026-07-01T01:20:25.717246,161537,69
2026-07-01T01:20:25.717246,161547,62
2026-07-01T01:20:25.798827,161606,60
2026-07-01T01:20:25.798827,161616,69
2026-07-01T01:20:25.798827,161627,61
2026-07-01T01:20:25.798827,161637,68
2026-07-01T01:20:25.798827,161647,62
2026-07-01T01:20:25.875312,161687,62
2026-07-01T01:20:25.875312,161698,66
2026-07-01T01:20:25.875312,161709,62
2026-07-01T01:20:25.875312,161719,62
2026-07-01T01:20:25.875312,161729,64
2026-07-01T01:20:25.968016,161763,58
2026-07-01T01:20:25.968016,161774,72
2026-07-01T01:20:25.968016,161785,60
2026-07-01T01:20:25.968016,161795,70
2026-07-01T01:20:25.968016,161805,61
2026-07-01T01:20:26.071344,161855,69
2026-07-01T01:20:26.071344,161866,61
2026-07-01T01:20:26.071344,161877,68
2026-07-01T01:20:26.071344,161887,62
2026-07-01T01:20:26.071344,161897,67
2026-07-01T01:20:26.166420,161964,60
2026-07-01T01:20:26.166420,161975,69
